Test Index,Train Index,Score,Computing Time (s),Space Usage (MB),Same Class
0,1,0.021428571428571463,0.00024739499713177793,0.1909189224243164,True
1,5,0.0071428571428571175,9.82510027824901e-05,0.1909341812133789,True
2,290,0.0071428571428571175,9.674499960965477e-05,0.1909341812133789,True
3,44,0.0,9.861099897534586e-05,0.19094181060791016,True
4,102,0.0,9.545399734633975e-05,0.19094181060791016,True
5,232,0.021428571428571463,0.00010195099821430631,0.1909189224243164,True
6,144,0.0,0.0001158459999714978,0.19094181060791016,True
7,98,0.0071428571428571175,0.00010371299867983907,0.1909341812133789,True
8,98,0.0,9.981599941966124e-05,0.19094181060791016,True
9,98,0.014285714285714235,0.00010206500155618414,0.19092655181884766,True
10,17,0.0,0.00010134599870070815,0.19094181060791016,True
11,158,0.0,9.963999764295295e-05,0.19094181060791016,True
12,44,0.0071428571428571175,9.70149994827807e-05,0.1909341812133789,True
13,69,0.0,9.91669985523913e-05,0.19094181060791016,True
14,5,0.0,0.00010626199946273118,0.19094181060791016,True
15,1,0.0,0.00010076299804495648,0.19094181060791016,True
16,10,0.0,0.00010389100134489127,0.19094181060791016,True
17,46,0.0,9.673200111137703e-05,0.19094181060791016,True
18,139,0.0,0.00013379399752011523,0.19094181060791016,True
19,25,0.0,9.610499910195358e-05,0.19094181060791016,True
20,5,0.0,0.00020612899970728904,0.19094181060791016,True
21,22,0.0071428571428571175,0.00010508600098546594,0.1909341812133789,True
22,44,0.0,9.651499931351282e-05,0.19094181060791016,True
23,1,0.0,0.00010816400026669726,0.19094181060791016,True
24,69,0.0071428571428571175,9.750200115377083e-05,0.1909341812133789,True
25,71,0.021428571428571463,0.00010317100168322213,0.1909189224243164,True
26,17,0.0,9.920400043483824e-05,0.19094181060791016,True
27,233,0.042857142857142816,9.738800144987181e-05,0.19089603424072266,True
28,51,0.0,9.703600153443404e-05,0.19094181060791016,True
29,35,0.0,0.00012589700054377317,0.19094181060791016,True
30,82,0.0,9.640099960961379e-05,0.19094181060791016,True
31,35,0.0,9.939499796018936e-05,0.19094181060791016,True
32,86,0.0,9.556000077282079e-05,0.19094181060791016,True
33,22,0.0,9.572600174578838e-05,0.19094181060791016,True
34,1,0.0,0.00011024600098608062,0.1909646987915039,True
35,10,0.0071428571428571175,0.00010027800090028904,0.1909799575805664,True
36,46,0.0,9.652300286688842e-05,0.19094181060791016,True
37,98,0.0,9.6543000836391e-05,0.19094181060791016,True
38,82,0.0,9.620900164009072e-05,0.19094181060791016,True
39,86,0.0,9.984999996959232e-05,0.19094181060791016,True
40,71,0.021428571428571463,9.719900117488578e-05,0.1909189224243164,True
41,46,0.0,9.627499821363017e-05,0.19094181060791016,True
42,17,0.0,0.00010095300240209326,0.19094181060791016,True
43,46,0.0,9.534299897495657e-05,0.19094181060791016,True
44,259,0.0,9.730700185173191e-05,0.19094181060791016,True
45,52,0.0,0.00013606699940282851,0.19094181060791016,True
46,145,0.021428571428571463,9.698500070953742e-05,0.1909189224243164,True
47,149,0.0357142857142857,9.74040012806654e-05,0.1909036636352539,True
48,51,0.0,0.00011316700329189189,0.19094181060791016,True
49,60,0.0,9.63910024438519e-05,0.19094181060791016,True
50,35,0.0,9.835599848884158e-05,0.19094181060791016,True
51,109,0.0,9.605900049791671e-05,0.19094181060791016,True
52,159,0.0,9.656299880589359e-05,0.19094181060791016,True
53,44,0.0,9.767599840415642e-05,0.19094181060791016,True
54,46,0.0,9.526699795969762e-05,0.19094181060791016,True
55,44,0.0071428571428571175,9.563399726175703e-05,0.1909341812133789,True
56,10,0.0,0.00022070300110499375,0.19094181060791016,True
57,109,0.0,0.00010290899808751419,0.19094181060791016,True
58,1,0.0,0.00011320699923089705,0.1909646987915039,True
59,255,0.0,9.9026998213958e-05,0.19094181060791016,True
60,46,0.0,9.90249973256141e-05,0.19094181060791016,True
61,17,0.0,0.00012012600200250745,0.19094181060791016,True
62,86,0.0,9.60750003287103e-05,0.19094181060791016,True
63,35,0.0,0.0001018879993353039,0.19094181060791016,True
64,100,0.0,0.00020259200027794577,0.19094181060791016,True
65,232,0.0,0.00010681999992812052,0.19094181060791016,True
66,145,0.11428571428571432,0.00012351199984550476,0.19081974029541016,True
67,35,0.0,0.00010571500024525449,0.19094181060791016,True
68,125,0.0,9.924900223268196e-05,0.19094181060791016,True
69,5,0.0,9.853300070972182e-05,0.19094181060791016,True
70,290,0.0071428571428571175,0.00011924000136787072,0.1909341812133789,True
71,232,0.0071428571428571175,0.00010946399925160222,0.1909341812133789,True
72,69,0.0,0.0001046759971359279,0.19094181060791016,True
73,51,0.0,0.00010037800166173838,0.19094181060791016,True
74,69,0.0,0.00010472700159880333,0.19094181060791016,True
75,46,0.0,9.594500079401769e-05,0.19094181060791016,True
76,137,0.0,9.489000149187632e-05,0.19094181060791016,True
77,5,0.0071428571428571175,0.00012001399954897352,0.1909341812133789,True
78,69,0.0,9.987500015995465e-05,0.19094181060791016,True
79,35,0.0071428571428571175,9.851399954641238e-05,0.1909341812133789,True
80,86,0.0071428571428571175,0.00010759900033008307,0.1909341812133789,True
81,44,0.0,9.864900130196474e-05,0.19094181060791016,True
82,44,0.0,0.00010053900041384622,0.19094181060791016,True
83,46,0.0,0.000102988000435289,0.19094181060791016,True
84,211,0.0,9.617999967304058e-05,0.19094181060791016,True
85,192,0.0,9.961000250768848e-05,0.19094181060791016,True
86,51,0.0071428571428571175,0.00011298800018266775,0.1909341812133789,True
87,158,0.0,9.824999870033935e-05,0.19094181060791016,True
88,86,0.0,0.00010191999899689108,0.19094181060791016,True
89,144,0.0,0.00010580000162008218,0.19094181060791016,True
90,35,0.0071428571428571175,0.00010087999908137135,0.1909341812133789,True
91,125,0.0,9.838099867920391e-05,0.19094181060791016,True
92,46,0.0,9.532599869999103e-05,0.19094181060791016,True
93,211,0.014285714285714235,9.754200073075481e-05,0.19092655181884766,True
94,35,0.0,9.557299927109852e-05,0.19094181060791016,True
95,192,0.0071428571428571175,0.00011750200064852834,0.1909341812133789,True
96,51,0.0,9.812599819269963e-05,0.19094181060791016,True
97,158,0.0071428571428571175,0.00010125599874299951,0.1909341812133789,True
98,10,0.014285714285714235,0.00011821899897768162,0.19097232818603516,True
99,5,0.0,9.83339996309951e-05,0.19094181060791016,True
100,1,0.0,0.00010392699914518744,0.1910257339477539,True
101,290,0.0071428571428571175,9.919399963109754e-05,0.1909341812133789,True
102,35,0.0,9.745799980009906e-05,0.19094181060791016,True
103,60,0.0,9.697099812910892e-05,0.19094181060791016,True
104,134,0.0,9.801499982131645e-05,0.19094181060791016,True
105,5,0.0,0.0001119780026783701,0.19094181060791016,True
106,25,0.0071428571428571175,9.906700142892078e-05,0.1909341812133789,True
107,110,0.02857142857142858,9.718100045574829e-05,0.19091129302978516,True
108,17,0.0,9.916800263454206e-05,0.19094181060791016,True
109,17,0.0,0.00010380700041423552,0.19094181060791016,True
110,232,0.0071428571428571175,9.907799903885461e-05,0.1909341812133789,True
111,1,0.014285714285714235,0.00010403800115454942,0.1910104751586914,True
112,193,0.0,9.653800225351006e-05,0.19094181060791016,True
113,35,0.0071428571428571175,0.00010158899749512784,0.1909341812133789,True
114,1,0.014285714285714235,0.00010304799798177555,0.1910104751586914,True
115,82,0.0,9.748899901751429e-05,0.19094181060791016,True
116,1,0.0,0.00010999700316460803,0.1910257339477539,True
117,5,0.0,0.00010711700087995268,0.19094181060791016,True
118,46,0.0,0.0001136800019594375,0.19094181060791016,True
119,232,0.0,9.782000051927753e-05,0.19094181060791016,True
120,1,0.0,0.00010301099973730743,0.1910257339477539,True
121,102,0.0071428571428571175,9.544999920763075e-05,0.1909341812133789,True
122,5,0.0071428571428571175,0.00010600400128168985,0.1909341812133789,True
123,86,0.0,9.579900142853148e-05,0.19094181060791016,True
124,86,0.0,9.755999781191349e-05,0.19094181060791016,True
125,193,0.0,0.00010441199992783368,0.19094181060791016,True
126,21,0.0071428571428571175,9.688399950391613e-05,0.1909341812133789,True
127,193,0.0,0.00011778400221373886,0.19094181060791016,True
128,10,0.0,0.00011385899779270403,0.19098758697509766,True
129,46,0.0,9.718000001157634e-05,0.19094181060791016,True
130,5,0.0,9.875999967334792e-05,0.19094181060791016,True
131,10,0.0,9.741499889059924e-05,0.19094181060791016,True
132,125,0.0,9.618799958843738e-05,0.19094181060791016,True
133,1,0.0071428571428571175,0.00010051399658550508,0.19101810455322266,True
134,381,0.09999999999999998,9.988500096369535e-05,0.19083499908447266,False
135,145,0.021428571428571463,0.00010285500320605934,0.1909189224243164,True
136,17,0.0,0.00010498100164113566,0.19094181060791016,True
137,5,0.0,0.00010962599844788201,0.19094181060791016,True
138,25,0.0,0.00010779700096463785,0.19094181060791016,True
139,46,0.0,0.00010260499766445719,0.19094181060791016,True
140,22,0.0,9.695599874248728e-05,0.19094181060791016,True
141,57,0.0,9.673900058260188e-05,0.19094181060791016,True
142,5,0.0,9.77870004135184e-05,0.19094181060791016,True
143,1,0.0,0.00011514599827933125,0.1910257339477539,True
144,21,0.0,0.00010101500083692372,0.19094181060791016,True
145,5,0.0,9.852599760051817e-05,0.19094181060791016,True
146,139,0.0,9.68450003711041e-05,0.19094181060791016,True
147,85,0.0,0.0001736919984978158,0.19094181060791016,True
148,134,0.0,0.00010917300096480176,0.19094181060791016,True
149,17,0.0,9.694099935586564e-05,0.19094181060791016,True
150,10,0.014285714285714235,0.0001026720019581262,0.19097232818603516,True
151,1,0.014285714285714235,0.0001008789986371994,0.1910104751586914,True
152,69,0.0,9.629199848859571e-05,0.19094181060791016,True
153,22,0.0071428571428571175,0.00013470799967763014,0.1909341812133789,True
154,46,0.0,9.81720004347153e-05,0.19094181060791016,True
155,10,0.0,0.00010220999683951959,0.19098758697509766,True
156,70,0.0,9.53820017457474e-05,0.19094181060791016,True
157,198,0.0,9.673200111137703e-05,0.19094181060791016,True
158,25,0.0071428571428571175,9.974799831979908e-05,0.1909341812133789,True
159,21,0.0,9.938100265571848e-05,0.19094181060791016,True
160,1,0.0,0.00011953099965467118,0.1910257339477539,True
161,35,0.0071428571428571175,9.75620023382362e-05,0.1909341812133789,True
162,211,0.0,9.671900261309929e-05,0.19094181060791016,True
163,194,0.0,9.547899753670208e-05,0.19094181060791016,True
164,35,0.0,0.00011858499783556908,0.19094181060791016,True
165,82,0.0,9.905299884849228e-05,0.19094181060791016,True
166,1,0.021428571428571463,0.00010236899834126234,0.19100284576416016,True
167,102,0.0,9.688699719845317e-05,0.19094181060791016,True
168,17,0.0,9.712600149214268e-05,0.19094181060791016,True
169,57,0.0,9.501399836153723e-05,0.19094181060791016,True
170,102,0.0071428571428571175,9.665100151323713e-05,0.1909341812133789,True
171,109,0.0,0.00010820099851116538,0.19094181060791016,True
172,52,0.0,0.00014190499859978445,0.19094181060791016,True
173,25,0.0071428571428571175,0.00010431199916638434,0.1909341812133789,True
174,5,0.0071428571428571175,9.907200001180172e-05,0.1909341812133789,True
175,46,0.0,9.594999937689863e-05,0.19094181060791016,True
176,102,0.0,9.603999933460727e-05,0.19094181060791016,True
177,158,0.0,9.687199781183153e-05,0.19094181060791016,True
178,109,0.15714285714285714,0.00011420699956943281,0.19077396392822266,True
179,25,0.0071428571428571175,9.721300011733547e-05,0.1909341812133789,True
180,1,0.0,0.0001025099991238676,0.1910257339477539,True
181,46,0.0,0.00010765300248749554,0.19094181060791016,True
182,137,0.0,0.00010448999819345772,0.19094181060791016,True
183,5,0.0071428571428571175,9.866000254987739e-05,0.1909341812133789,True
184,102,0.0,0.00010361699969507754,0.19094181060791016,True
185,17,0.0,9.66890002018772e-05,0.19094181060791016,True
186,44,0.0,0.0001064810021489393,0.19094181060791016,True
187,25,0.014285714285714235,0.00010339500295231119,0.19092655181884766,True
188,10,0.0,0.00010027000098489225,0.19094181060791016,True
189,21,0.0,0.0001077960005204659,0.19094181060791016,True
190,211,0.0,9.519300147076137e-05,0.19094181060791016,True
191,86,0.0,9.582699931343086e-05,0.19094181060791016,True
192,82,0.0,9.749899982125498e-05,0.19094181060791016,True
193,17,0.0,9.673499880591407e-05,0.19094181060791016,True
194,57,0.0,0.00012360900291241705,0.19094181060791016,True
195,100,0.0071428571428571175,0.000107640000351239,0.1909341812133789,True
196,10,0.0,0.0001103530012187548,0.19098758697509766,True
197,82,0.0,9.54630013438873e-05,0.19094181060791016,True
198,17,0.0,0.00010701899736886844,0.19094181060791016,True
199,82,0.0,9.498600047663786e-05,0.19094181060791016,True
200,111,0.0,9.518799924990162e-05,0.19094181060791016,True
201,109,0.0,0.00039169799856608734,0.19094181060791016,True
202,5,0.0071428571428571175,0.00010172000111197121,0.1909341812133789,True
203,5,0.0071428571428571175,0.00011323500075377524,0.1909341812133789,True
204,98,0.0,9.944699922925793e-05,0.19094181060791016,True
205,1,0.0071428571428571175,0.00010124799882760271,0.19101810455322266,True
206,203,0.0,9.543299893266521e-05,0.19094181060791016,True
207,25,0.0071428571428571175,0.00011206799899809994,0.1909341812133789,True
208,86,0.0,0.00011233300028834492,0.19094181060791016,True
209,290,0.014285714285714235,9.946499994839542e-05,0.19092655181884766,True
210,233,0.06428571428571428,0.00033385200003976934,0.1908731460571289,True
211,102,0.0,0.00043797699981951155,0.19094181060791016,True
212,35,0.0,9.811799827730283e-05,0.19094181060791016,True
213,98,0.0,9.63849997788202e-05,0.19094181060791016,True
214,17,0.0,9.794599827728234e-05,0.19094181060791016,True
215,139,0.0071428571428571175,9.539500024402514e-05,0.1909341812133789,True
216,10,0.0071428571428571175,9.790200056158938e-05,0.1909341812133789,True
217,1,0.0071428571428571175,0.000100737001048401,0.19101810455322266,True
218,46,0.0,9.598800170351751e-05,0.19094181060791016,True
219,10,0.0,9.679900176706724e-05,0.19094181060791016,True
220,51,0.0,9.776500155567192e-05,0.19094181060791016,True
221,110,0.014285714285714235,9.809200128074735e-05,0.19092655181884766,True
222,85,0.08571428571428574,9.643399971537292e-05,0.19085025787353516,True
223,158,0.0071428571428571175,9.712500104797073e-05,0.1909341812133789,True
224,10,0.0,9.665600009611808e-05,0.19094181060791016,True
225,139,0.014285714285714235,9.706000128062442e-05,0.19092655181884766,True
226,98,0.0,9.583700011717156e-05,0.19094181060791016,True
227,233,0.05714285714285716,9.611600034986623e-05,0.19088077545166016,True
228,5,0.014285714285714235,9.870600115391426e-05,0.19092655181884766,True
229,17,0.0071428571428571175,9.820599734666757e-05,0.1909341812133789,True
230,82,0.0,0.00010245399971609004,0.19094181060791016,True
231,5,0.014285714285714235,9.785499787540175e-05,0.19092655181884766,True
232,17,0.0071428571428571175,0.00010565000047790818,0.1909341812133789,True
233,46,0.0,9.450599827687256e-05,0.19094181060791016,True
234,22,0.0,9.595500159775838e-05,0.19094181060791016,True
235,5,0.0,9.781900007510558e-05,0.19094181060791016,True
236,17,0.0071428571428571175,9.618200056138448e-05,0.1909341812133789,True
237,290,0.0071428571428571175,9.62289996095933e-05,0.1909341812133789,True
238,82,0.0,9.494799815001898e-05,0.19094181060791016,True
239,17,0.0071428571428571175,9.781100015970878e-05,0.1909341812133789,True
240,71,0.014285714285714235,9.856399992713705e-05,0.19092655181884766,True
241,25,0.0071428571428571175,0.00011792200166382827,0.1909341812133789,True
242,51,0.0,9.619400225346908e-05,0.19094181060791016,True
243,82,0.0,9.54469978751149e-05,0.19094181060791016,True
244,35,0.021428571428571463,0.00010978100181091577,0.1909189224243164,True
245,35,0.0071428571428571175,9.674800094217062e-05,0.1909341812133789,True
246,193,0.0,9.787800081539899e-05,0.19094181060791016,True
247,46,0.0,0.00011590400026761927,0.19094181060791016,True
248,57,0.0,9.728800068842247e-05,0.19094181060791016,True
249,35,0.0,9.722300092107616e-05,0.19094181060791016,True
250,44,0.0071428571428571175,9.556499935570173e-05,0.1909341812133789,True
251,137,0.0,9.569300164002925e-05,0.19094181060791016,True
252,35,0.0071428571428571175,9.822699939832091e-05,0.1909341812133789,True
253,51,0.0071428571428571175,9.678599963081069e-05,0.1909341812133789,True
254,86,0.0,0.00010255300003336743,0.19094181060791016,True
255,1,0.09285714285714286,0.00010020400077337399,0.19092655181884766,True
256,86,0.0,9.879100252874196e-05,0.19094181060791016,True
257,134,0.014285714285714235,0.0001433969991921913,0.19092655181884766,True
258,98,0.0071428571428571175,9.73960013652686e-05,0.1909341812133789,True
259,51,0.0071428571428571175,0.00011463900227681734,0.1909341812133789,True
260,1,0.0,0.00010110200310009532,0.1910257339477539,True
261,5,0.0071428571428571175,0.00010471700079506263,0.1909341812133789,True
262,17,0.0,0.00010558799840509892,0.19094181060791016,True
263,1,0.021428571428571463,0.0001269470012630336,0.19100284576416016,True
264,82,0.0,9.769300231710076e-05,0.19094181060791016,True
265,44,0.0,0.00010306599870091304,0.19094181060791016,True
266,82,0.0071428571428571175,9.722000322653912e-05,0.1909341812133789,True
267,10,0.0071428571428571175,0.00010000600013881922,0.1909799575805664,True
268,21,0.014285714285714235,9.69989996519871e-05,0.19092655181884766,True
269,110,0.0071428571428571175,0.00010454600123921409,0.1909341812133789,True
270,102,0.0,0.00011332799840602092,0.19094181060791016,True
271,82,0.0,0.00010156099961022846,0.19094181060791016,True
272,5,0.0,9.905800106935203e-05,0.19094181060791016,True
273,232,0.0,9.859800047706813e-05,0.19094181060791016,True
274,44,0.0,0.00013967999984743074,0.19094181060791016,True
275,17,0.0,0.0001104160000977572,0.19094181060791016,True
276,111,0.0,0.00011122199794044718,0.19094181060791016,True
277,46,0.0,0.00010959000064758584,0.19094181060791016,True
278,193,0.0,0.00011118600014015101,0.19094181060791016,True
279,71,0.0,9.52949994825758e-05,0.19094181060791016,True
280,10,0.0,0.00010508799823583104,0.19098758697509766,True
281,10,0.0,0.00010142300016013905,0.19094181060791016,True
282,35,0.014285714285714235,0.00010207499872194603,0.19092655181884766,True
283,1,0.02857142857142858,0.00010136200216948055,0.1909952163696289,True
284,10,0.0071428571428571175,0.00011718699897755869,0.1909341812133789,True
285,17,0.0,9.874500028672628e-05,0.19094181060791016,True
286,5,0.0,9.806399975786917e-05,0.19094181060791016,True
287,5,0.0,9.785300062503666e-05,0.19094181060791016,True
288,70,0.0,0.00013683200086234137,0.19094181060791016,True
289,82,0.0,9.821399726206437e-05,0.19094181060791016,True
290,17,0.0,9.804700312088244e-05,0.19094181060791016,True
291,35,0.0,9.573200077284127e-05,0.19094181060791016,True
292,10,0.0,0.00010023200229625218,0.19098758697509766,True
293,25,0.0071428571428571175,9.877699994831346e-05,0.1909341812133789,True
294,82,0.0,0.00011211499804630876,0.19094181060791016,True
295,35,0.0,9.680700168246403e-05,0.19094181060791016,True
296,52,0.0,0.00011764999726437964,0.19094181060791016,True
297,102,0.0,9.505100024398416e-05,0.19094181060791016,True
298,232,0.014285714285714235,9.880099969450384e-05,0.19092655181884766,True
299,139,0.0,9.695700282463804e-05,0.19094181060791016,True
300,10,0.0071428571428571175,0.00022834199990029447,0.1909799575805664,True
301,1,0.0,0.0001019020019157324,0.1910257339477539,True
302,49,0.050000000000000044,9.696900087874383e-05,0.1908884048461914,True
303,5,0.0,9.999100075219758e-05,0.19094181060791016,True
304,21,0.0071428571428571175,0.00010007799937739037,0.1909341812133789,True
305,5,0.0,0.0001455370002076961,0.19094181060791016,True
306,379,0.06428571428571428,9.785899965208955e-05,0.1908731460571289,False
307,10,0.0071428571428571175,0.00010155100244446658,0.1909799575805664,True
308,82,0.0,0.00010914899758063257,0.19094181060791016,True
309,245,0.0,0.00010481700155651197,0.19094181060791016,True
310,86,0.0071428571428571175,9.553899872116745e-05,0.1909341812133789,True
311,22,0.0,9.894100003293715e-05,0.19094181060791016,True
312,100,0.0,9.65309991443064e-05,0.19094181060791016,True
313,22,0.0,9.682299787527882e-05,0.19094181060791016,True
314,46,0.0071428571428571175,9.472199963056482e-05,0.1909341812133789,True
315,10,0.0,9.76269984676037e-05,0.19094181060791016,True
316,44,0.0,9.476099876337685e-05,0.19094181060791016,True
317,98,0.0,9.672799933468923e-05,0.19094181060791016,True
318,25,0.0071428571428571175,9.656999827711843e-05,0.1909341812133789,True
319,46,0.0,9.848099944065325e-05,0.19094181060791016,True
320,1,0.0357142857142857,0.0001108860014937818,0.19098758697509766,True
321,144,0.0,9.880899960990064e-05,0.19094181060791016,True
322,232,0.0,9.849900015979074e-05,0.19094181060791016,True
323,35,0.0,9.659699935582466e-05,0.19094181060791016,True
324,25,0.0071428571428571175,9.770900214789435e-05,0.1909341812133789,True
325,82,0.0,9.996399967349134e-05,0.19094181060791016,True
326,25,0.0,0.00011597900083870627,0.19094181060791016,True
327,44,0.0,9.865500032901764e-05,0.19094181060791016,True
328,17,0.0071428571428571175,0.00013048300024820492,0.1909341812133789,True
329,46,0.0,9.493600009591319e-05,0.19094181060791016,True
330,69,0.0,9.701399903860874e-05,0.19094181060791016,True
331,60,0.0071428571428571175,0.00011494900172692724,0.1909341812133789,True
332,46,0.0,9.705300180939957e-05,0.19094181060791016,True
333,98,0.0,0.00010866099910344929,0.19094181060791016,True
334,98,0.0,9.67659980233293e-05,0.19094181060791016,True
335,46,0.0,0.00010537100024521351,0.19094181060791016,True
336,17,0.0071428571428571175,9.840999700827524e-05,0.1909341812133789,True
337,139,0.0,0.00013228099851403385,0.19094181060791016,True
338,21,0.0071428571428571175,9.651700020185672e-05,0.1909341812133789,True
339,192,0.0,9.609300104784779e-05,0.19094181060791016,True
340,17,0.0,0.00010591000318527222,0.19094181060791016,True
341,10,0.0,9.721999958856031e-05,0.19094181060791016,True
342,49,0.042857142857142816,9.610699999029748e-05,0.19089603424072266,True
343,232,0.014285714285714235,9.772900011739694e-05,0.19092655181884766,True
344,17,0.0,9.879799836198799e-05,0.19094181060791016,True
345,1,0.014285714285714235,0.00010736100011854433,0.1910104751586914,True
346,17,0.0,9.677100024418905e-05,0.19094181060791016,True
347,44,0.0071428571428571175,9.568300083628856e-05,0.1909341812133789,True
348,44,0.0071428571428571175,0.00011902799815288745,0.1909341812133789,True
349,82,0.0,9.560800026520155e-05,0.19094181060791016,True
350,232,0.0071428571428571175,9.705000047688372e-05,0.1909341812133789,True
351,5,0.0071428571428571175,9.81739976850804e-05,0.1909341812133789,True
352,17,0.0,9.697700079414062e-05,0.19094181060791016,True
353,109,0.0,9.545200009597465e-05,0.19094181060791016,True
354,145,0.02857142857142858,0.00012312299804762006,0.19091129302978516,True
355,17,0.0,9.57609991019126e-05,0.19094181060791016,True
356,51,0.0,9.697700079414062e-05,0.19094181060791016,True
357,49,0.02857142857142858,9.942099859472364e-05,0.19091129302978516,True
358,139,0.0,9.640899952501059e-05,0.19094181060791016,True
359,272,0.09285714285714286,0.00010118199861608446,0.1908426284790039,True
360,5,0.0,9.852999937720597e-05,0.19094181060791016,True
361,57,0.0,9.607199899619445e-05,0.19094181060791016,True
362,5,0.0071428571428571175,0.00012357000014162622,0.1909341812133789,True
363,192,0.0,0.00010427399683976546,0.19094181060791016,True
364,69,0.0071428571428571175,9.936900096363388e-05,0.1909341812133789,True
365,22,0.0,9.881300138658844e-05,0.19094181060791016,True
366,17,0.0,0.00010037600077339448,0.19094181060791016,True
367,35,0.0071428571428571175,9.70190012594685e-05,0.1909341812133789,True
368,111,0.02857142857142858,9.954900087905116e-05,0.19091129302978516,True
369,136,0.0,9.628100087866187e-05,0.19094181060791016,True
370,125,0.0,9.6850999398157e-05,0.19094181060791016,True
371,211,0.0071428571428571175,9.665299876360223e-05,0.1909341812133789,True
372,57,0.0,0.00011252200056333095,0.19094181060791016,True
373,249,0.0,9.579399920767173e-05,0.19094181060791016,True
374,232,0.0071428571428571175,9.687800047686324e-05,0.1909341812133789,True
375,86,0.0,9.464799950364977e-05,0.19094181060791016,True
376,17,0.0,9.666299956734292e-05,0.19094181060791016,True
377,86,0.0071428571428571175,9.681300070951693e-05,0.1909341812133789,True
378,46,0.0,0.0001028240003506653,0.19094181060791016,True
379,1,0.0071428571428571175,0.00010719399870140478,0.19101810455322266,True
380,44,0.0,9.733200204209425e-05,0.19094181060791016,True
381,82,0.0,9.575500007485971e-05,0.19094181060791016,True
382,70,0.0,9.634000161895528e-05,0.19094181060791016,True
383,10,0.0,9.94280017039273e-05,0.19098758697509766,True
384,1,0.0071428571428571175,0.0001007289974950254,0.19101810455322266,True
385,69,0.0,9.528100054012612e-05,0.19094181060791016,True
386,5,0.0,0.00010782200115500018,0.19094181060791016,True
387,211,0.0071428571428571175,9.591600246494636e-05,0.1909341812133789,True
388,44,0.0,9.604600199963897e-05,0.19094181060791016,True
389,232,0.0071428571428571175,9.656100155552849e-05,0.1909341812133789,True
390,44,0.0,9.90250009635929e-05,0.19094181060791016,True
391,144,0.0,0.00012541600153781474,0.19094181060791016,True
392,57,0.0,9.64539976848755e-05,0.19094181060791016,True
393,10,0.0,0.00010825899880728684,0.19098758697509766,True
394,5,0.0071428571428571175,9.807300011743791e-05,0.1909341812133789,True
395,5,0.0071428571428571175,0.00011349400301696733,0.1909341812133789,True
396,17,0.0,9.782499910215847e-05,0.19094181060791016,True
397,110,0.02857142857142858,9.742699694470502e-05,0.19091129302978516,True
398,69,0.0,9.617999967304058e-05,0.19094181060791016,True
399,232,0.014285714285714235,9.73979986156337e-05,0.19092655181884766,True
400,17,0.0,0.00013806700007990003,0.19094181060791016,True
401,49,0.014285714285714235,0.00011596500189625658,0.19092655181884766,True
402,10,0.0,0.00010052200013888068,0.19098758697509766,True
403,5,0.0,9.939500159816816e-05,0.19094181060791016,True
404,17,0.0,9.695799963083118e-05,0.19094181060791016,True
405,5,0.0,9.796499944059178e-05,0.19094181060791016,True
406,125,0.0,0.00010255599772790447,0.19094181060791016,True
407,192,0.0,9.829799819272012e-05,0.19094181060791016,True
408,139,0.0,0.000110270000732271,0.19094181060791016,True
409,237,0.0,0.00010236799789709039,0.19094181060791016,True
410,5,0.0,9.717799912323244e-05,0.19094181060791016,True
411,100,0.0,9.594299990567379e-05,0.19094181060791016,True
412,69,0.0,0.00010486000246601179,0.19094181060791016,True
413,25,0.0071428571428571175,0.00010223600111203268,0.1909341812133789,True
414,69,0.0,9.616899842512794e-05,0.19094181060791016,True
415,1,0.0,0.00010738600030890666,0.1910257339477539,True
416,86,0.0,9.741100075189024e-05,0.19094181060791016,True
417,211,0.0,9.656799738877453e-05,0.19094181060791016,True
418,69,0.0,0.00010531100269872695,0.19094181060791016,True
419,10,0.0071428571428571175,9.8636002803687e-05,0.1909799575805664,True
420,82,0.0,9.577699893270619e-05,0.19094181060791016,True
421,46,0.0,9.587200111127459e-05,0.19094181060791016,True
422,100,0.0,0.00011280800026725046,0.19094181060791016,True
423,249,0.0,0.00011056600123993121,0.19094181060791016,True
424,46,0.0,9.719200170366094e-05,0.19094181060791016,True
425,290,0.0,9.558399688103236e-05,0.19094181060791016,True
426,17,0.0,0.00010267499965266325,0.19094181060791016,True
427,35,0.014285714285714235,9.719100125948898e-05,0.19092655181884766,True
428,1,0.0071428571428571175,0.00010540400035097264,0.19101810455322266,True
429,35,0.0,9.683499956736341e-05,0.19094181060791016,True
430,5,0.0,9.738899825606495e-05,0.19094181060791016,True
431,82,0.0,9.813399810809642e-05,0.19094181060791016,True
432,158,0.0071428571428571175,0.0001058529996953439,0.1909341812133789,True
433,17,0.014285714285714235,9.73109999904409e-05,0.19092655181884766,True
434,46,0.0,9.640300049795769e-05,0.19094181060791016,True
435,35,0.0071428571428571175,9.58500022534281e-05,0.1909341812133789,True
436,25,0.014285714285714235,9.783600035007112e-05,0.19092655181884766,True
437,86,0.0,9.560800026520155e-05,0.19094181060791016,True
438,82,0.0,9.518700244370848e-05,0.19094181060791016,True
439,232,0.021428571428571463,0.00010127299901796505,0.1909189224243164,True
440,51,0.0,9.707000208436511e-05,0.19094181060791016,True
441,69,0.0,0.00010708999980124645,0.19094181060791016,True
442,5,0.0071428571428571175,9.916999988490716e-05,0.1909341812133789,True
443,5,0.0071428571428571175,0.00011364799865987152,0.1909341812133789,True
444,44,0.0,0.00010040300185210072,0.19094181060791016,True
445,35,0.0,0.00011443499897723086,0.19094181060791016,True
446,35,0.0,0.00011207699935766868,0.19094181060791016,True
447,290,0.0,9.793999925022945e-05,0.19094181060791016,True
448,232,0.014285714285714235,9.765700087882578e-05,0.19092655181884766,True
449,70,0.0,9.519599916529842e-05,0.19094181060791016,True
450,17,0.0,9.546000001137145e-05,0.19094181060791016,True
451,10,0.0,0.00010546699922997504,0.19094181060791016,True
452,5,0.0071428571428571175,9.765100185177289e-05,0.1909341812133789,True
453,5,0.0071428571428571175,0.00010120400111190975,0.1909341812133789,True
454,82,0.0,0.0001115060003940016,0.19094181060791016,True
455,82,0.0,9.516299905953929e-05,0.19094181060791016,True
456,100,0.0,9.641499855206348e-05,0.19094181060791016,True
457,232,0.0,0.00011620700024650432,0.19094181060791016,True
458,57,0.0,0.00012384599904180504,0.19094181060791016,True
459,17,0.0,9.699200018076226e-05,0.19094181060791016,True
460,125,0.0,9.975200009648688e-05,0.19094181060791016,True
461,5,0.0,0.00011683399861794896,0.19094181060791016,True
462,21,0.0071428571428571175,9.63220008998178e-05,0.1909341812133789,True
463,134,0.0071428571428571175,9.625500024412759e-05,0.1909341812133789,True
464,17,0.0,9.877500269794837e-05,0.19094181060791016,True
465,5,0.0,0.00010733699673437513,0.19094181060791016,True
466,82,0.0071428571428571175,9.865099855232984e-05,0.1909341812133789,True
467,10,0.021428571428571463,0.00010974999895552173,0.1909646987915039,True
468,1,0.0,0.00010269999984302558,0.1910257339477539,True
469,1,0.0,0.00010167900109081529,0.1910257339477539,True
470,125,0.0,0.00010446899977978319,0.19094181060791016,True
471,69,0.0,9.474200123804621e-05,0.19094181060791016,True
472,109,0.0,0.00011193099999218248,0.19094181060791016,True
473,255,0.014285714285714235,0.00010681700223358348,0.19092655181884766,True
474,198,0.0,9.497499922872521e-05,0.19094181060791016,True
475,125,0.0,9.624299855204299e-05,0.19094181060791016,True
476,232,0.0,0.00010355799895478413,0.19094181060791016,True
477,46,0.0,0.00010746000043582171,0.19094181060791016,True
478,194,0.0,0.00010014299914473668,0.19094181060791016,True
479,25,0.0071428571428571175,0.00011496800289023668,0.1909341812133789,True
480,5,0.0,9.951000174623914e-05,0.19094181060791016,True
481,1,0.014285714285714235,0.00010209199899691157,0.1910104751586914,True
482,57,0.014285714285714235,9.675800174591132e-05,0.19092655181884766,True
483,10,0.0,0.00010461599958944134,0.19098758697509766,True
484,145,0.13571428571428568,9.534799755783752e-05,0.1907968521118164,True
485,259,0.0071428571428571175,9.746100113261491e-05,0.1909341812133789,True
486,17,0.0071428571428571175,0.00011501399785629474,0.1909341812133789,True
487,71,0.0,0.00010038300024461932,0.19094181060791016,True
488,237,0.0,0.00010064099842566065,0.19094181060791016,True
489,109,0.0,0.0001022100004774984,0.19094181060791016,True
490,10,0.0,0.00010154899791814387,0.19098758697509766,True
491,69,0.0,0.00010273500083712861,0.19094181060791016,True
492,21,0.0071428571428571175,9.63809980021324e-05,0.1909341812133789,True
493,232,0.0,9.666000187280588e-05,0.19094181060791016,True
494,110,0.014285714285714235,9.91729975794442e-05,0.19092655181884766,True
495,158,0.0,0.00011292500130366534,0.19094181060791016,True
496,233,0.0357142857142857,0.00011641300079645589,0.1909036636352539,True
497,139,0.014285714285714235,9.901600060402416e-05,0.19092655181884766,True
498,10,0.0,9.74020003923215e-05,0.19094181060791016,True
499,60,0.0,0.00011333399743307382,0.19094181060791016,True
500,35,0.0071428571428571175,0.00010179300079471432,0.1909341812133789,True
501,137,0.0,9.842000144999474e-05,0.19094181060791016,True
502,1,0.0071428571428571175,0.00020739700266858563,0.19101810455322266,True
503,44,0.0,9.80990007519722e-05,0.19094181060791016,True
504,57,0.0071428571428571175,0.00011075800284743309,0.1909341812133789,True
505,211,0.0,9.874100214801729e-05,0.19094181060791016,True
506,158,0.0071428571428571175,9.818900070968084e-05,0.1909341812133789,True
507,102,0.0,9.551399853080511e-05,0.19094181060791016,True
508,17,0.0,0.00010077200204250403,0.19094181060791016,True
509,51,0.0,9.723400216898881e-05,0.19094181060791016,True
510,158,0.0,0.00014414799807127565,0.19094181060791016,True
511,232,0.0,0.0001433889992767945,0.19094181060791016,True
512,69,0.0071428571428571175,9.674400280346163e-05,0.1909341812133789,True
513,201,0.021428571428571463,0.00010330700024496764,0.1909189224243164,True
514,1,0.0,0.00010850199760170653,0.1910257339477539,True
515,46,0.0,0.00011043999984394759,0.19094181060791016,True
516,25,0.014285714285714235,9.745599891175516e-05,0.19092655181884766,True
517,233,0.0071428571428571175,0.00011844199980259873,0.1909341812133789,True
518,290,0.0,9.95619993773289e-05,0.19094181060791016,True
519,60,0.0,0.00010107299749506637,0.19094181060791016,True
520,5,0.0071428571428571175,9.859600322670303e-05,0.1909341812133789,True
521,98,0.0,9.880699872155674e-05,0.19094181060791016,True
522,1,0.0,0.0001104099974327255,0.1910257339477539,True
523,44,0.0,0.0003129500000795815,0.19094181060791016,True
524,211,0.0,0.00010099800056195818,0.19094181060791016,True
525,35,0.014285714285714235,0.00010696000026655383,0.19092655181884766,True
526,52,0.0,9.896800111164339e-05,0.19094181060791016,True
527,10,0.0,0.00010099000064656138,0.19098758697509766,True
528,69,0.0071428571428571175,9.535099889035337e-05,0.1909341812133789,True
529,481,0.0071428571428571175,9.649600178818218e-05,0.1909341812133789,False
530,211,0.0,9.602300269762054e-05,0.19094181060791016,True
531,35,0.0,9.562799823470414e-05,0.19094181060791016,True
532,86,0.014285714285714235,0.000101270001323428,0.19092655181884766,True
533,51,0.0071428571428571175,9.696399865788408e-05,0.1909341812133789,True
534,145,0.021428571428571463,0.00011767199976020493,0.1909189224243164,True
535,245,0.0,0.0001036100002238527,0.19094181060791016,True
536,102,0.0071428571428571175,9.55399991653394e-05,0.1909341812133789,True
537,10,0.0,0.00010678199760150164,0.19098758697509766,True
538,21,0.0,9.632599903852679e-05,0.19094181060791016,True
539,21,0.014285714285714235,9.852800212684087e-05,0.19092655181884766,True
540,145,0.11428571428571432,9.618699914426543e-05,0.19081974029541016,True
541,44,0.0,9.781600238056853e-05,0.19094181060791016,True
542,98,0.0,9.643599696573801e-05,0.19094181060791016,True
543,82,0.0,9.489999865763821e-05,0.19094181060791016,True
544,17,0.0,0.00011033000191673636,0.19094181060791016,True
545,145,0.021428571428571463,9.982499977922998e-05,0.1909189224243164,True
546,46,0.0,9.68449967331253e-05,0.19094181060791016,True
547,49,0.0071428571428571175,9.595499795977958e-05,0.1909341812133789,True
548,290,0.0,9.641300130169839e-05,0.19094181060791016,True
549,1,0.0,9.984799908124842e-05,0.1910257339477539,True
550,51,0.0071428571428571175,9.513300028629601e-05,0.1909341812133789,True
551,10,0.0,0.00010868900062632747,0.19098758697509766,True
552,25,0.0,9.845799650065601e-05,0.19094181060791016,True
553,1,0.0,0.00010271499922964722,0.1910257339477539,True
554,233,0.1071428571428571,9.577699893270619e-05,0.1908273696899414,True
555,102,0.0,0.00010524699973757379,0.19094181060791016,True
556,5,0.0071428571428571175,9.75580005615484e-05,0.1909341812133789,True
557,44,0.0,9.649400089983828e-05,0.19094181060791016,True
558,82,0.0,9.533499905955978e-05,0.19094181060791016,True
559,255,0.0,9.602199861546978e-05,0.19094181060791016,True
560,46,0.0,9.56250005401671e-05,0.19094181060791016,True
561,98,0.0,9.73310015979223e-05,0.19094181060791016,True
562,21,0.0071428571428571175,9.736300125950947e-05,0.1909341812133789,True
563,10,0.0,9.800899715628475e-05,0.19094181060791016,True
564,137,0.0,9.483199755777605e-05,0.19094181060791016,True
565,100,0.0,9.557399971527047e-05,0.19094181060791016,True
566,86,0.0,9.620299897505902e-05,0.19094181060791016,True
567,35,0.014285714285714235,9.631300054024905e-05,0.19092655181884766,True
568,5,0.0071428571428571175,9.765899812919088e-05,0.1909341812133789,True
569,232,0.0,0.00011698700109263882,0.19094181060791016,True
570,5,0.0071428571428571175,9.660700015956536e-05,0.1909341812133789,True
571,139,0.0071428571428571175,0.00011442899995017797,0.1909341812133789,True
572,192,0.0,9.656000111135654e-05,0.19094181060791016,True
573,10,0.021428571428571463,0.00011406399789848365,0.1909646987915039,True
574,201,0.014285714285714235,0.00010688499969546683,0.19092655181884766,True
575,35,0.0071428571428571175,0.00011177100168424658,0.1909341812133789,True
576,49,0.014285714285714235,9.638799747335725e-05,0.19092655181884766,True
577,35,0.0,0.00011027900109183975,0.19094181060791016,True
578,46,0.0,9.552800111123361e-05,0.19094181060791016,True
579,35,0.0,9.651999789639376e-05,0.19094181060791016,True
580,52,0.0,9.495099948253483e-05,0.19094181060791016,True
581,17,0.0,9.683600001153536e-05,0.19094181060791016,True
582,139,0.0,0.00010012699931394309,0.19094181060791016,True
583,10,0.0,0.00010988899884978309,0.19098758697509766,True
584,22,0.0,9.612999929231592e-05,0.19094181060791016,True
585,290,0.0,0.00010327400013920851,0.19094181060791016,True
586,82,0.0071428571428571175,9.739000233821571e-05,0.1909341812133789,True
587,203,0.0,9.615900125936605e-05,0.19094181060791016,True
588,233,0.0,0.00010496300092199817,0.19094181060791016,True
589,193,0.0,0.00010833399937837385,0.19094181060791016,True
590,5,0.0,9.719599984236993e-05,0.19094181060791016,True
591,35,0.0071428571428571175,0.00013442000272334553,0.1909341812133789,True
592,10,0.0071428571428571175,0.00011179400098626502,0.1909799575805664,True
593,82,0.0,0.00023390399655909277,0.19094181060791016,True
594,259,0.0,9.644999954616651e-05,0.19094181060791016,True
595,194,0.0,9.645300087868236e-05,0.19094181060791016,True
596,145,0.014285714285714235,9.695599874248728e-05,0.19092655181884766,True
597,46,0.0,9.472999954596162e-05,0.19094181060791016,True
598,5,0.0071428571428571175,9.66360021266155e-05,0.1909341812133789,True
599,1,0.0071428571428571175,0.0001011079984891694,0.19101810455322266,True
600,5,0.0,0.0001001109994831495,0.19094181060791016,True
601,159,0.0,9.719099762151018e-05,0.19094181060791016,True
602,17,0.0,9.970099927159026e-05,0.19094181060791016,True
603,69,0.0071428571428571175,0.00010589500016067177,0.1909341812133789,True
604,22,0.0,9.658600174589083e-05,0.19094181060791016,True
605,134,0.0,9.938999937730841e-05,0.19094181060791016,True
606,51,0.0,9.60769975790754e-05,0.19094181060791016,True
607,125,0.0071428571428571175,9.703199975774623e-05,0.1909341812133789,True
608,259,0.0,0.00010844999997061677,0.19094181060791016,True
609,82,0.0,9.549400056130253e-05,0.19094181060791016,True
610,232,0.0,9.883799793897197e-05,0.19094181060791016,True
611,10,0.0071428571428571175,0.0001325719968008343,0.1909341812133789,True
612,10,0.0,9.865199899650179e-05,0.19094181060791016,True
613,44,0.0,0.00010100399958901107,0.19094181060791016,True
614,290,0.0,9.658499766374007e-05,0.19094181060791016,True
615,109,0.0,9.752400001161732e-05,0.19094181060791016,True
616,10,0.0071428571428571175,0.00010066500180982985,0.1909341812133789,True
617,44,0.0,9.693299944046885e-05,0.19094181060791016,True
618,35,0.0,9.547200170345604e-05,0.19094181060791016,True
619,233,0.042857142857142816,0.00011932900088140741,0.19089603424072266,True
620,35,0.0,9.717799912323244e-05,0.19094181060791016,True
621,17,0.0,0.0001585019999765791,0.19094181060791016,True
622,46,0.0,9.556200166116469e-05,0.19094181060791016,True
623,5,0.0,9.612400026526302e-05,0.19094181060791016,True
624,10,0.0,9.707900244393386e-05,0.19094181060791016,True
625,57,0.0071428571428571175,0.00012673899982473813,0.1909341812133789,True
626,259,0.0,0.00012086700007785112,0.19094181060791016,True
627,46,0.0,0.00011087199891335331,0.19094181060791016,True
628,22,0.0,9.766600123839453e-05,0.19094181060791016,True
629,35,0.014285714285714235,9.561399929225445e-05,0.19092655181884766,True
630,139,0.014285714285714235,9.629299893276766e-05,0.19092655181884766,True
631,1,0.0,0.00010195100185228512,0.1910257339477539,True
632,22,0.0071428571428571175,0.00010546100020292215,0.1909341812133789,True
633,5,0.0,9.80909971985966e-05,0.19094181060791016,True
634,1,0.0071428571428571175,9.993999992730096e-05,0.19101810455322266,True
635,21,0.0071428571428571175,9.639800191507675e-05,0.1909341812133789,True
636,25,0.0,9.629900159779936e-05,0.19094181060791016,True
637,86,0.0,0.00010277299952576868,0.19094181060791016,True
638,57,0.0,9.441099973628297e-05,0.19094181060791016,True
639,35,0.021428571428571463,9.53859998844564e-05,0.1909189224243164,True
640,5,0.0071428571428571175,9.873499948298559e-05,0.1909341812133789,True
641,46,0.0071428571428571175,9.582600250723772e-05,0.1909341812133789,True
642,17,0.0,9.60809993557632e-05,0.19094181060791016,True
643,44,0.0,9.658500130171888e-05,0.19094181060791016,True
644,10,0.0,0.00010141299935639836,0.19098758697509766,True
645,159,0.0,9.524099732516333e-05,0.19094181060791016,True
646,10,0.0,0.00010209700121777132,0.19094181060791016,True
647,5,0.0071428571428571175,0.00010034300066763535,0.1909341812133789,True
648,102,0.0,0.0001075670006684959,0.19094181060791016,True
649,295,0.12142857142857144,9.507099821348675e-05,0.1908121109008789,False
650,290,0.0,9.812899952521548e-05,0.19094181060791016,True
651,35,0.0,9.727400174597278e-05,0.19094181060791016,True
652,211,0.0,0.00010912799916695803,0.19094181060791016,True
653,158,0.0071428571428571175,9.6621999546187e-05,0.1909341812133789,True
654,52,0.0,0.00010322399975848384,0.19094181060791016,True
655,10,0.0,9.635999958845787e-05,0.19094181060791016,True
656,35,0.0,9.595300070941448e-05,0.19094181060791016,True
657,35,0.0071428571428571175,9.56859985308256e-05,0.1909341812133789,True
658,125,0.0,9.955100176739506e-05,0.19094181060791016,True
659,35,0.0071428571428571175,9.745900024427101e-05,0.1909341812133789,True
660,46,0.0,9.70149994827807e-05,0.19094181060791016,True
661,17,0.0,0.00010790799933602102,0.19094181060791016,True
662,139,0.0071428571428571175,9.617400064598769e-05,0.1909341812133789,True
663,158,0.0071428571428571175,0.0001015050002024509,0.1909341812133789,True
664,137,0.0,9.634500020183623e-05,0.19094181060791016,True
665,57,0.0,9.525199857307598e-05,0.19094181060791016,True
666,21,0.0,9.598399992682971e-05,0.19094181060791016,True
667,21,0.0071428571428571175,0.00011225100024603307,0.1909341812133789,True
668,69,0.0,9.591500202077441e-05,0.19094181060791016,True
669,211,0.0,9.507099821348675e-05,0.19094181060791016,True
670,100,0.0,9.585500083630905e-05,0.19094181060791016,True
671,17,0.0,9.702200259198435e-05,0.19094181060791016,True
672,69,0.0,9.681899973656982e-05,0.19094181060791016,True
673,295,0.12857142857142856,9.524900087853894e-05,0.19080448150634766,False
674,10,0.0071428571428571175,0.00010421899787615985,0.1909799575805664,True
675,35,0.0071428571428571175,0.00010337899948353879,0.1909341812133789,True
676,44,0.0,9.611399946152233e-05,0.19094181060791016,True
677,86,0.021428571428571463,9.712999963085167e-05,0.1909189224243164,True
678,35,0.0,9.725400013849139e-05,0.19094181060791016,True
679,10,0.0,9.939200026565231e-05,0.19098758697509766,True
680,22,0.0071428571428571175,9.538100130157545e-05,0.1909341812133789,True
681,198,0.0071428571428571175,9.962699914467521e-05,0.1909341812133789,True
682,158,0.0,9.612099893274717e-05,0.19094181060791016,True
683,46,0.0071428571428571175,0.00010661200212780386,0.1909341812133789,True
684,125,0.0,9.916600174619816e-05,0.19094181060791016,True
685,102,0.0,9.528699956717901e-05,0.19094181060791016,True
686,125,0.0,9.626899918657728e-05,0.19094181060791016,True
687,35,0.0071428571428571175,9.644699821365066e-05,0.1909341812133789,True
688,139,0.0,9.757899897522293e-05,0.19094181060791016,True
689,290,0.0,0.00021524100156966597,0.19094181060791016,True
690,290,0.0071428571428571175,0.000104057999124052,0.1909341812133789,True
691,159,0.014285714285714235,9.721199967316352e-05,0.19092655181884766,True
692,158,0.0,9.665600009611808e-05,0.19094181060791016,True
693,290,0.0,0.00010788700092234649,0.19094181060791016,True
694,57,0.0,0.00012462400263757445,0.19094181060791016,True
695,17,0.0,0.0001127559989981819,0.19094181060791016,True
696,22,0.0,0.00010028299948316999,0.19094181060791016,True
697,5,0.0,0.00010372299948357977,0.19094181060791016,True
698,1,0.021428571428571463,0.00010220699914498255,0.19100284576416016,True
699,102,0.0071428571428571175,9.97930001176428e-05,0.1909341812133789,True
700,82,0.0,0.0001134449994424358,0.19094181060791016,True
701,10,0.0,0.00010594799823593348,0.19098758697509766,True
702,10,0.0071428571428571175,0.0001120529996114783,0.1909341812133789,True
703,70,0.0,0.00011831599840661511,0.19094181060791016,True
704,25,0.0071428571428571175,0.00010056400060420856,0.1909341812133789,True
705,17,0.0071428571428571175,0.0001106589988921769,0.1909341812133789,True
706,232,0.0,0.00010457899770699441,0.19094181060791016,True
707,10,0.0,0.00010513300003367476,0.19094181060791016,True
708,125,0.0,0.00010339599975850433,0.19094181060791016,True
709,82,0.0071428571428571175,9.642799705034122e-05,0.1909341812133789,True
710,22,0.0,0.00010230000043520704,0.19094181060791016,True
711,52,0.0,9.587399836163968e-05,0.19094181060791016,True
712,17,0.0071428571428571175,0.00010808699880726635,0.1909341812133789,True
713,25,0.0071428571428571175,0.00011813799937954172,0.1909341812133789,True
714,17,0.0,9.846000102697872e-05,0.19094181060791016,True
715,52,0.0,9.671699808677658e-05,0.19094181060791016,True
716,100,0.0,9.637000039219856e-05,0.19094181060791016,True
717,69,0.0,0.00010175900024478324,0.19094181060791016,True
718,35,0.0071428571428571175,0.0001090320001821965,0.1909341812133789,True
719,125,0.0,9.702399984234944e-05,0.19094181060791016,True
720,1,0.0,0.00010405099965282716,0.1910257339477539,True
721,272,0.1071428571428571,9.709700316307135e-05,0.1908273696899414,True
722,10,0.0,0.00010015199950430542,0.19098758697509766,True
723,82,0.0,0.00010960900181089528,0.19094181060791016,True
724,82,0.0,9.99650001176633e-05,0.19094181060791016,True
725,17,0.0,9.6010000561364e-05,0.19094181060791016,True
726,158,0.0071428571428571175,9.74730028246995e-05,0.1909341812133789,True
727,10,0.0,9.773399870027788e-05,0.19094181060791016,True
728,35,0.0071428571428571175,9.892299931379966e-05,0.1909341812133789,True
729,193,0.0071428571428571175,0.00011048200030927546,0.1909341812133789,True
730,35,0.0,0.00010804100020322949,0.19094181060791016,True
731,100,0.0,9.835900345933624e-05,0.19094181060791016,True
732,102,0.0071428571428571175,0.00012573799904203042,0.1909341812133789,True
733,1,0.0,0.00010331099838367663,0.1910257339477539,True
734,82,0.0071428571428571175,9.630200293031521e-05,0.1909341812133789,True
735,10,0.0,0.00010194999777013436,0.19098758697509766,True
736,198,0.0,9.633300214773044e-05,0.19094181060791016,True
737,46,0.0071428571428571175,9.705999764264561e-05,0.1909341812133789,True
738,17,0.0,9.798999963095412e-05,0.19094181060791016,True
739,35,0.0,0.00012340900138951838,0.19094181060791016,True
740,17,0.0,9.719599984236993e-05,0.19094181060791016,True
741,1,0.0,0.00011218099825782701,0.1910257339477539,True
742,233,0.1071428571428571,9.75439979811199e-05,0.1908273696899414,True
743,46,0.0,9.89520012808498e-05,0.19094181060791016,True
744,17,0.0,9.801700070966035e-05,0.19094181060791016,True
745,57,0.0,9.720600064611062e-05,0.19094181060791016,True
746,149,0.014285714285714235,0.00010074599776999094,0.19092655181884766,True
747,110,0.050000000000000044,9.946699719876051e-05,0.1908884048461914,True
748,44,0.0,9.774399950401857e-05,0.19094181060791016,True
749,57,0.0,0.00010796900096465833,0.19094181060791016,True
750,290,0.0071428571428571175,0.0001122760004363954,0.1909341812133789,True
751,17,0.0071428571428571175,0.00010509799903957173,0.1909341812133789,True
752,193,0.0,9.599899931345135e-05,0.19094181060791016,True
753,98,0.0,9.872800001176074e-05,0.19094181060791016,True
754,111,0.021428571428571463,0.0001083289971575141,0.1909189224243164,True
755,10,0.0,9.736599895404652e-05,0.19094181060791016,True
756,232,0.0071428571428571175,9.801000123843551e-05,0.1909341812133789,True
757,102,0.0,9.552000119583681e-05,0.19094181060791016,True
758,1,0.0,0.00010245800149277784,0.1910257339477539,True
759,35,0.0,9.62329977483023e-05,0.19094181060791016,True
760,25,0.0071428571428571175,0.00011410099978093058,0.1909341812133789,True
761,82,0.0,9.60789984674193e-05,0.19094181060791016,True
762,82,0.0,9.657299960963428e-05,0.19094181060791016,True
763,5,0.0071428571428571175,9.839199992711656e-05,0.1909341812133789,True
764,46,0.0,9.714999760035425e-05,0.19094181060791016,True
765,52,0.0,9.594400034984574e-05,0.19094181060791016,True
766,82,0.0,0.00010770000153570436,0.19094181060791016,True
767,17,0.0,0.00011019800149369985,0.19094181060791016,True
768,17,0.0071428571428571175,9.857499753707089e-05,0.1909341812133789,True
769,25,0.014285714285714235,9.684600081527606e-05,0.19092655181884766,True
770,60,0.0,9.840799975791015e-05,0.19094181060791016,True
771,10,0.0,0.00010486000246601179,0.19094181060791016,True
772,1,0.0,0.00010355500126024708,0.1910257339477539,True
773,1,0.0071428571428571175,0.00010186800136580132,0.19101810455322266,True
774,17,0.0,9.870199937722646e-05,0.19094181060791016,True
775,1,0.0,0.00012263399912626483,0.1910257339477539,True
776,25,0.0,0.00010420100079500116,0.19094181060791016,True
777,46,0.0,9.520300227450207e-05,0.19094181060791016,True
778,145,0.19285714285714284,9.778200183063745e-05,0.1907358169555664,True
779,10,0.0,0.0001021129974105861,0.19098758697509766,True
780,229,0.0,9.611299901735038e-05,0.19094181060791016,True
781,145,0.0357142857142857,9.865699757938273e-05,0.1909036636352539,True
782,10,0.0071428571428571175,0.00010062000001198612,0.1909799575805664,True
783,100,0.0,0.00010591400132398121,0.19094181060791016,True
784,10,0.0,0.00010232799832010642,0.19098758697509766,True
785,22,0.0,0.00010647600356605835,0.19094181060791016,True
786,46,0.0,9.551800030749291e-05,0.19094181060791016,True
787,233,0.021428571428571463,9.898399730445817e-05,0.1909189224243164,True
788,139,0.0,9.57589982135687e-05,0.19094181060791016,True
789,10,0.0,0.00010018099783337675,0.19098758697509766,True
790,82,0.0,0.00013210099859861657,0.19094181060791016,True
791,139,0.0,9.714000043459237e-05,0.19094181060791016,True
792,290,0.0,9.794699872145429e-05,0.19094181060791016,True
793,1,0.0,0.00010156499774893746,0.1910257339477539,True
794,232,0.0071428571428571175,9.667299673310481e-05,0.1909341812133789,True
795,46,0.0,9.673599925008602e-05,0.19094181060791016,True
796,17,0.0071428571428571175,9.890699948300608e-05,0.1909341812133789,True
797,5,0.0071428571428571175,9.724599658511579e-05,0.1909341812133789,True
798,46,0.0,9.595300070941448e-05,0.19094181060791016,True
799,10,0.0071428571428571175,9.761799810803495e-05,0.1909341812133789,True
800,109,0.0,9.541899999021553e-05,0.19094181060791016,True
801,290,0.0,9.667299673310481e-05,0.19094181060791016,True
802,57,0.0,9.556999793858267e-05,0.19094181060791016,True
803,125,0.014285714285714235,9.682500240160152e-05,0.19092655181884766,True
804,233,0.05714285714285716,9.907300045597367e-05,0.19088077545166016,True
805,1,0.0,0.00012525900092441589,0.1910257339477539,True
806,5,0.0,9.976500223274343e-05,0.19094181060791016,True
807,1,0.0,0.00013469400073518045,0.1910257339477539,True
808,259,0.0,9.649200001149438e-05,0.19094181060791016,True
809,35,0.014285714285714235,9.911899906001054e-05,0.19092655181884766,True
810,5,0.0,9.805399895412847e-05,0.19094181060791016,True
811,17,0.0,9.736400170368142e-05,0.19094181060791016,True
812,192,0.0,9.53050002863165e-05,0.19094181060791016,True
813,17,0.0,9.993300045607612e-05,0.19094181060791016,True
814,35,0.0,9.504300032858737e-05,0.19094181060791016,True
815,290,0.014285714285714235,9.765800132299773e-05,0.19092655181884766,True
816,5,0.0071428571428571175,0.00011545199959073216,0.1909341812133789,True
817,86,0.0,9.641600263421424e-05,0.19094181060791016,True
818,100,0.0,9.627899999031797e-05,0.19094181060791016,True
819,70,0.0071428571428571175,9.715200212667696e-05,0.1909341812133789,True
820,17,0.0071428571428571175,9.664700337452814e-05,0.1909341812133789,True
821,44,0.0,9.65510007517878e-05,0.19094181060791016,True
822,35,0.0,9.799200051929802e-05,0.19094181060791016,True
823,193,0.0,9.483199755777605e-05,0.19094181060791016,True
824,35,0.0,9.608400068827905e-05,0.19094181060791016,True
825,5,0.0071428571428571175,9.874399984255433e-05,0.1909341812133789,True
826,46,0.0,9.681599840405397e-05,0.19094181060791016,True
827,44,0.0071428571428571175,9.663099990575574e-05,0.1909341812133789,True
828,198,0.0,9.575100193615071e-05,0.19094181060791016,True
829,1,0.0071428571428571175,0.00010401100007584319,0.19101810455322266,True
830,5,0.0,9.712800238048658e-05,0.19094181060791016,True
831,10,0.0,9.66849984251894e-05,0.19094181060791016,True
832,17,0.0,9.637300172471441e-05,0.19094181060791016,True
833,211,0.0,9.809200128074735e-05,0.19094181060791016,True
834,245,0.0,9.691199738881551e-05,0.19094181060791016,True
835,1,0.0,0.00010009499965235591,0.1910257339477539,True
836,46,0.0,9.911700180964544e-05,0.19094181060791016,True
837,5,0.0,9.896199844661169e-05,0.19094181060791016,True
838,5,0.0071428571428571175,9.843299994827248e-05,0.1909341812133789,True
839,102,0.0,9.729600060381927e-05,0.19094181060791016,True
840,1,0.0,0.00010144699990632944,0.1910257339477539,True
841,44,0.0071428571428571175,9.543399937683716e-05,0.1909341812133789,True
842,290,0.0,9.601700003258884e-05,0.19094181060791016,True
843,57,0.0,9.966300058295019e-05,0.19094181060791016,True
844,232,0.0,9.84759972197935e-05,0.19094181060791016,True
845,46,0.0,9.683000098448247e-05,0.19094181060791016,True
846,193,0.0,9.538300218991935e-05,0.19094181060791016,True
847,22,0.0071428571428571175,0.00012018200141028501,0.1909341812133789,True
848,290,0.0,9.56959993345663e-05,0.19094181060791016,True
849,49,0.0,9.606999810785055e-05,0.19094181060791016,True
850,5,0.0071428571428571175,9.741300164023414e-05,0.1909341812133789,True
851,22,0.0071428571428571175,9.94910005829297e-05,0.1909341812133789,True
852,198,0.12142857142857144,9.365799996885471e-05,0.1908121109008789,True
853,46,0.0,9.628799671190791e-05,0.19094181060791016,True
854,44,0.0071428571428571175,9.915400005411357e-05,0.1909341812133789,True
855,5,0.0,9.834099910221994e-05,0.19094181060791016,True
856,136,0.0,9.610699999029748e-05,0.19094181060791016,True
857,5,0.0,0.00012213599984534085,0.19094181060791016,True
858,22,0.0071428571428571175,0.00013006500012124889,0.1909341812133789,True
859,1,0.0,0.00013715100067202002,0.1910257339477539,True
860,102,0.0,0.00010302200098522007,0.19094181060791016,True
861,46,0.0,9.584099825588055e-05,0.19094181060791016,True
862,1,0.014285714285714235,0.00010080299762194045,0.1910104751586914,True
863,51,0.0,9.531999967293814e-05,0.19094181060791016,True
864,35,0.014285714285714235,9.643700104788877e-05,0.19092655181884766,True
865,69,0.0,0.00011183300011907704,0.19094181060791016,True
866,51,0.0,0.00010117700003320351,0.19094181060791016,True
867,198,0.0,9.580299956724048e-05,0.19094181060791016,True
868,232,0.0071428571428571175,0.00011839600119856186,0.1909341812133789,True
869,5,0.0,0.00011263199849054217,0.19094181060791016,True
870,102,0.0,9.840600250754505e-05,0.19094181060791016,True
871,136,0.0071428571428571175,9.848499757936224e-05,0.1909341812133789,True
872,139,0.0071428571428571175,9.62269987212494e-05,0.1909341812133789,True
873,102,0.0,9.841800056165084e-05,0.19094181060791016,True
874,46,0.0,9.597499956726097e-05,0.19094181060791016,True
875,82,0.0,9.997099914471619e-05,0.19094181060791016,True
876,82,0.0,9.519899685983546e-05,0.19094181060791016,True
877,35,0.0071428571428571175,9.672099986346439e-05,0.1909341812133789,True
878,17,0.0,9.646699982113205e-05,0.19094181060791016,True
879,125,0.0,9.517999933450483e-05,0.19094181060791016,True
880,69,0.0,9.497200153418817e-05,0.19094181060791016,True
881,44,0.0,0.00011274099961156026,0.19094181060791016,True
882,193,0.0,0.00010486300016054884,0.19094181060791016,True
883,10,0.0,0.00010279799971613102,0.19098758697509766,True
884,46,0.0,9.934199988492765e-05,0.19094181060791016,True
885,86,0.014285714285714235,9.488800060353242e-05,0.19092655181884766,True
886,109,0.0,9.516299905953929e-05,0.19094181060791016,True
887,144,0.0357142857142857,9.723000039230101e-05,0.1909036636352539,True
888,110,0.050000000000000044,9.696400229586288e-05,0.1908884048461914,True
889,110,0.021428571428571463,9.799100007512607e-05,0.1909189224243164,True
890,1,0.15714285714285714,0.00010124099935637787,0.1908578872680664,True
891,5,0.0,9.884899918688461e-05,0.19094181060791016,True
892,22,0.0,0.00010091699732583947,0.19094181060791016,True
893,255,0.0,9.65510007517878e-05,0.19094181060791016,True
894,290,0.0071428571428571175,9.607199899619445e-05,0.1909341812133789,True
895,255,0.0,9.554899952490814e-05,0.19094181060791016,True
896,1,0.0,9.984600183088332e-05,0.1910257339477539,True
897,109,0.0,9.677100024418905e-05,0.19094181060791016,True
898,17,0.0,9.814900113269687e-05,0.19094181060791016,True
899,35,0.0071428571428571175,0.00010931799988611601,0.1909341812133789,True
900,46,0.0,0.00016239899923675694,0.19094181060791016,True
901,17,0.0,9.685399709269404e-05,0.19094181060791016,True
902,1,0.0,0.00010387000293121673,0.1910257339477539,True
903,69,0.0,9.797700113267638e-05,0.19094181060791016,True
904,22,0.0,9.811400013859384e-05,0.19094181060791016,True
905,17,0.0,0.00010481800200068392,0.19094181060791016,True
906,51,0.0,0.00010403599662822671,0.19094181060791016,True
907,5,0.0071428571428571175,0.0001439279985788744,0.1909341812133789,True
908,44,0.0,0.00010640199980116449,0.19094181060791016,True
909,439,0.0071428571428571175,0.00010378400111221708,0.1909341812133789,False
910,259,0.0071428571428571175,0.00010122300227521919,0.1909341812133789,True
911,35,0.0,9.714499901747331e-05,0.19094181060791016,True
912,109,0.0,0.00010782800018205307,0.19094181060791016,True
913,211,0.0,9.726400094223209e-05,0.19094181060791016,True
914,1,0.0,0.00010811899846885353,0.1910257339477539,True
915,145,0.0357142857142857,0.00012525000056484714,0.1909036636352539,True
916,35,0.0071428571428571175,0.00010651100092218257,0.1909341812133789,True
917,17,0.0071428571428571175,0.00010565199772827327,0.1909341812133789,True
918,102,0.0071428571428571175,9.891799709293991e-05,0.1909341812133789,True
919,82,0.0071428571428571175,0.00010207699961028993,0.1909341812133789,True
920,17,0.0,0.00011269500100752339,0.19094181060791016,True
921,139,0.0071428571428571175,0.00010423300045658834,0.1909341812133789,True
922,46,0.0,0.00010190399916609749,0.19094181060791016,True
923,10,0.0,9.627499821363017e-05,0.19094181060791016,True
924,192,0.0,9.758899977896363e-05,0.19094181060791016,True
925,69,0.0,9.744099952513352e-05,0.19094181060791016,True
926,25,0.0,9.813200085773133e-05,0.19094181060791016,True
927,158,0.0,9.729100202093832e-05,0.19094181060791016,True
928,232,0.0,0.00010291499711456709,0.19094181060791016,True
929,57,0.0,9.519000013824552e-05,0.19094181060791016,True
930,82,0.0,9.746200157678686e-05,0.19094181060791016,True
931,139,0.0071428571428571175,0.00012444199819583446,0.1909341812133789,True
932,134,0.0071428571428571175,9.736699939821847e-05,0.1909341812133789,True
933,46,0.0,9.590099944034591e-05,0.19094181060791016,True
934,1,0.0,0.00010219500109087676,0.1910257339477539,True
935,35,0.0071428571428571175,9.504100307822227e-05,0.1909341812133789,True
936,22,0.0,9.644899910199456e-05,0.19094181060791016,True
937,17,0.0,9.711500024423003e-05,0.19094181060791016,True
938,44,0.0071428571428571175,9.830699855228886e-05,0.1909341812133789,True
939,232,0.0071428571428571175,9.668799975770526e-05,0.1909341812133789,True
940,1,0.0071428571428571175,0.00012092299948562868,0.19101810455322266,True
941,46,0.0,9.593800132279284e-05,0.19094181060791016,True
942,46,0.0071428571428571175,9.595799929229543e-05,0.1909341812133789,True
943,192,0.0,0.00010481400022399612,0.19094181060791016,True
944,209,0.042857142857142816,9.511000098427758e-05,0.19089603424072266,True
945,17,0.014285714285714235,9.891400259220973e-05,0.19092655181884766,True
946,44,0.0,0.00011839800208690576,0.19094181060791016,True
947,82,0.0,9.750400204211473e-05,0.19094181060791016,True
948,22,0.0071428571428571175,9.615499948267825e-05,0.1909341812133789,True
949,1,0.02857142857142858,0.00010293800005456433,0.1909952163696289,True
950,98,0.0,0.00010109299910254776,0.19094181060791016,True
951,51,0.0,9.790200056158938e-05,0.19094181060791016,True
952,1,0.0,0.00010358600047766231,0.1910257339477539,True
953,69,0.0071428571428571175,0.00011559400081750937,0.1909341812133789,True
954,10,0.0,9.62430021900218e-05,0.19094181060791016,True
955,70,0.0,9.561600018059835e-05,0.19094181060791016,True
956,159,0.0,9.511100142844953e-05,0.19094181060791016,True
957,69,0.0071428571428571175,9.638800111133605e-05,0.1909341812133789,True
958,232,0.0071428571428571175,0.00010035800005425699,0.1909341812133789,True
959,22,0.0,0.0001526949999970384,0.19094181060791016,True
960,71,0.014285714285714235,0.00010356799975852482,0.19092655181884766,True
961,255,0.0,9.663899982115254e-05,0.19094181060791016,True
962,60,0.014285714285714235,9.932000102708116e-05,0.19092655181884766,True
963,290,0.0,9.697299901745282e-05,0.19094181060791016,True
964,44,0.0,9.608600157662295e-05,0.19094181060791016,True
965,290,0.0,0.00012692100062849931,0.19094181060791016,True
966,102,0.0,9.620900164009072e-05,0.19094181060791016,True
967,44,0.0,0.00023938400045153685,0.19094181060791016,True
968,5,0.0,9.699599831947125e-05,0.19094181060791016,True
969,10,0.0,9.996399967349134e-05,0.19098758697509766,True
970,46,0.0,0.00010159999874304049,0.19094181060791016,True
971,52,0.0,9.575799776939675e-05,0.19094181060791016,True
972,290,0.0071428571428571175,0.00010701700011850335,0.1909341812133789,True
973,136,0.0,9.599300028639846e-05,0.19094181060791016,True
974,35,0.0,9.480200242251158e-05,0.19094181060791016,True
975,35,0.0071428571428571175,9.641499855206348e-05,0.1909341812133789,True
976,10,0.0071428571428571175,0.00010364500121795572,0.1909799575805664,True
977,273,0.0,9.624700032873079e-05,0.19094181060791016,True
978,21,0.0,0.00010464799925102852,0.19094181060791016,True
979,139,0.0071428571428571175,0.00011829200229840353,0.1909341812133789,True
980,211,0.0071428571428571175,0.00010569000005489215,0.1909341812133789,True
981,10,0.0,0.00012113499906263314,0.19098758697509766,True
982,25,0.0071428571428571175,0.00021001699860789813,0.1909341812133789,True
983,35,0.0,0.00010533900058362633,0.19094181060791016,True
984,460,0.1071428571428571,9.488499927101657e-05,0.1908273696899414,False
985,5,0.0071428571428571175,9.818499893299304e-05,0.1909341812133789,True
986,100,0.0,9.625000166124664e-05,0.19094181060791016,True
987,51,0.0,9.695599874248728e-05,0.19094181060791016,True
988,35,0.0,9.801300257095136e-05,0.19094181060791016,True
989,46,0.0071428571428571175,9.955899804481305e-05,0.1909341812133789,True
990,255,0.0071428571428571175,9.64780010690447e-05,0.1909341812133789,True
991,5,0.0071428571428571175,9.903200043481775e-05,0.1909341812133789,True
992,10,0.0,9.938899893313646e-05,0.19098758697509766,True
993,5,0.0,0.00011779600026784465,0.19094181060791016,True
994,17,0.0,9.622200013836846e-05,0.19094181060791016,True
995,21,0.0357142857142857,9.63749989750795e-05,0.1909036636352539,True
996,17,0.0,9.70820001384709e-05,0.19094181060791016,True
997,1,0.042857142857142816,0.00010002800263464451,0.1909799575805664,True
998,35,0.0071428571428571175,9.922499884851277e-05,0.1909341812133789,True
999,158,0.0,9.68570020631887e-05,0.19094181060791016,True
1000,290,0.021428571428571463,9.695499829831533e-05,0.1909189224243164,True
1001,5,0.0071428571428571175,9.785300062503666e-05,0.1909341812133789,True
1002,35,0.0071428571428571175,9.697399946162477e-05,0.1909341812133789,True
1003,46,0.0071428571428571175,0.00010897600077441894,0.1909341812133789,True
1004,5,0.014285714285714235,9.901000157697126e-05,0.19092655181884766,True
1005,5,0.0,0.00011583900050027296,0.19094181060791016,True
1006,9,0.0,9.78680000116583e-05,0.19094181060791016,True
1007,22,0.0071428571428571175,9.614100054022856e-05,0.1909341812133789,True
1008,17,0.0,9.873499948298559e-05,0.19094181060791016,True
1009,102,0.0,9.78700009000022e-05,0.19094181060791016,True
1010,272,0.021428571428571463,9.618300100555643e-05,0.1909189224243164,True
1011,110,0.0071428571428571175,9.770500037120655e-05,0.1909341812133789,True
1012,102,0.0071428571428571175,9.596800009603612e-05,0.1909341812133789,True
1013,5,0.0,0.0001123610018112231,0.19094181060791016,True
1014,10,0.0,0.00011746499876608141,0.19094181060791016,True
1015,1,0.0071428571428571175,0.00010188200030825101,0.19101810455322266,True
1016,10,0.0071428571428571175,0.00010431700138724409,0.1909341812133789,True
1017,237,0.0,0.00010931200085906312,0.19094181060791016,True
1018,5,0.0,9.76350020209793e-05,0.19094181060791016,True
1019,22,0.0071428571428571175,9.552299889037386e-05,0.1909341812133789,True
1020,290,0.0,9.870000212686136e-05,0.19094181060791016,True
1021,10,0.0071428571428571175,0.0001020519994199276,0.1909799575805664,True
1022,10,0.0,0.00010014899817178957,0.19098758697509766,True
1023,98,0.0,9.586899977875873e-05,0.19094181060791016,True
1024,25,0.0357142857142857,9.742399925016798e-05,0.1909036636352539,True
1025,46,0.0,0.00010232400018139742,0.19094181060791016,True
1026,44,0.0,9.775600119610317e-05,0.19094181060791016,True
1027,86,0.0,9.55420000536833e-05,0.19094181060791016,True
1028,10,0.0,0.0001002610006253235,0.19098758697509766,True
1029,35,0.0071428571428571175,9.666000187280588e-05,0.1909341812133789,True
1030,10,0.0,0.00012606400196091272,0.19094181060791016,True
1031,10,0.0,0.00010065700189443305,0.19098758697509766,True
1032,46,0.0,9.574499927111901e-05,0.19094181060791016,True
1033,46,0.0,9.423899973626249e-05,0.19094181060791016,True
1034,35,0.0,9.62289996095933e-05,0.19094181060791016,True
1035,44,0.0071428571428571175,9.526299982098863e-05,0.1909341812133789,True
1036,52,0.0,9.548200250719674e-05,0.19094181060791016,True
1037,145,0.050000000000000044,9.59210010478273e-05,0.1908884048461914,True
1038,1,0.0,0.00010138600191567093,0.1910257339477539,True
1039,22,0.0071428571428571175,9.586399755789898e-05,0.1909341812133789,True
1040,82,0.0,9.541100007481873e-05,0.19094181060791016,True
1041,233,0.0,9.593900176696479e-05,0.19094181060791016,True
1042,17,0.0071428571428571175,9.610900087864138e-05,0.1909341812133789,True
1043,5,0.0071428571428571175,0.00010325299808755517,0.1909341812133789,True
1044,25,0.0071428571428571175,9.597900134394877e-05,0.1909341812133789,True
1045,5,0.0,9.915900227497332e-05,0.19094181060791016,True
1046,60,0.0,9.656800102675334e-05,0.19094181060791016,True
1047,35,0.0,0.00010312700032955036,0.19094181060791016,True
1048,144,0.014285714285714235,9.662899901741184e-05,0.19092655181884766,True
1049,10,0.0,0.00010066100003314205,0.19098758697509766,True
1050,1,0.0,0.00010048699914477766,0.1910257339477539,True
1051,10,0.0,9.650100037106313e-05,0.19094181060791016,True
1052,25,0.0,9.754499842529185e-05,0.19094181060791016,True
1053,60,0.0071428571428571175,9.716000204207376e-05,0.1909341812133789,True
1054,10,0.0,9.578100070939399e-05,0.19094181060791016,True
1055,136,0.0071428571428571175,9.494800178799778e-05,0.1909341812133789,True
1056,137,0.0,9.642000077292323e-05,0.19094181060791016,True
1057,46,0.0,9.552100164000876e-05,0.19094181060791016,True
1058,5,0.0071428571428571175,9.733299884828739e-05,0.1909341812133789,True
1059,5,0.0071428571428571175,9.808400136535056e-05,0.1909341812133789,True
1060,290,0.0071428571428571175,9.580199912306853e-05,0.1909341812133789,True
1061,17,0.0071428571428571175,0.00011370299762347713,0.1909341812133789,True
1062,17,0.0071428571428571175,0.00010473300062585622,0.1909341812133789,True
1063,139,0.0,0.00011170200014021248,0.19094181060791016,True
1064,21,0.0,9.493600009591319e-05,0.19094181060791016,True
1065,145,0.02857142857142858,0.00010520399882807396,0.19091129302978516,True
1066,46,0.0,9.666600089985877e-05,0.19094181060791016,True
1067,82,0.0,9.689299986348487e-05,0.19094181060791016,True
1068,5,0.0071428571428571175,0.00010483600271982141,0.1909341812133789,True
1069,52,0.0,9.85570004559122e-05,0.19094181060791016,True
1070,17,0.0,0.00010450799891259521,0.19094181060791016,True
1071,71,0.014285714285714235,0.00010760700024547987,0.19092655181884766,True
1072,86,0.0,9.55440009420272e-05,0.19094181060791016,True
1073,5,0.0071428571428571175,0.00010013700011768378,0.1909341812133789,True
1074,109,0.0,9.636599861551076e-05,0.19094181060791016,True
1075,211,0.014285714285714235,0.00010758799908217043,0.19092655181884766,True
1076,5,0.0071428571428571175,0.00011304899817332625,0.1909341812133789,True
1077,46,0.0,9.56069998210296e-05,0.19094181060791016,True
1078,21,0.0071428571428571175,9.526899884804152e-05,0.1909341812133789,True
1079,110,0.0071428571428571175,9.720799789647572e-05,0.1909341812133789,True
1080,35,0.0,0.00010549500075285323,0.19094181060791016,True
1081,1,0.02857142857142858,0.00010113600001204759,0.1909952163696289,True
1082,5,0.0071428571428571175,9.926399798132479e-05,0.1909341812133789,True
1083,229,0.0,9.542699990561232e-05,0.19094181060791016,True
1084,290,0.0,9.520200183033012e-05,0.19094181060791016,True
1085,192,0.0,9.589100227458403e-05,0.19094181060791016,True
1086,1,0.0,0.00010069400013890117,0.1910257339477539,True
1087,100,0.0,9.613300062483177e-05,0.19094181060791016,True
1088,46,0.0,9.518099977867678e-05,0.19094181060791016,True
1089,193,0.0,0.0001252490001206752,0.19094181060791016,True
1090,51,0.0,9.707299977890216e-05,0.19094181060791016,True
1091,229,0.0,9.625199891161174e-05,0.19094181060791016,True
1092,139,0.0,9.79410033323802e-05,0.19094181060791016,True
1093,25,0.0,9.59169992711395e-05,0.19094181060791016,True
1094,86,0.06428571428571428,0.000126169001305243,0.1908731460571289,True
1095,35,0.0,9.671700172475539e-05,0.19094181060791016,True
1096,102,0.0,9.544799831928685e-05,0.19094181060791016,True
1097,46,0.0,9.697999848867767e-05,0.19094181060791016,True
1098,82,0.0,9.783299901755527e-05,0.19094181060791016,True
1099,232,0.0,9.66849984251894e-05,0.19094181060791016,True
1100,109,0.0,9.480900189373642e-05,0.19094181060791016,True
1101,17,0.0071428571428571175,9.693999891169369e-05,0.1909341812133789,True
1102,139,0.014285714285714235,0.00010059700070996769,0.19092655181884766,True
1103,139,0.0,9.878200216917321e-05,0.19094181060791016,True
1104,17,0.0,9.686699922895059e-05,0.19094181060791016,True
1105,5,0.0,0.0001060779977706261,0.19094181060791016,True
1106,46,0.0071428571428571175,9.690599836176261e-05,0.1909341812133789,True
1107,25,0.0071428571428571175,9.720200250740163e-05,0.1909341812133789,True
1108,49,0.09285714285714286,9.816099918680266e-05,0.1908426284790039,True
1109,144,0.0,9.620299897505902e-05,0.19094181060791016,True
1110,25,0.0071428571428571175,0.0003127589989162516,0.1909341812133789,True
1111,1,0.0,0.00010417900193715468,0.1910257339477539,True
1112,51,0.0,9.60729994403664e-05,0.19094181060791016,True
1113,5,0.0,0.00012619600238394924,0.19094181060791016,True
1114,139,0.0071428571428571175,0.00010022299829870462,0.1909341812133789,True
1115,85,0.014285714285714235,9.688099817140028e-05,0.19092655181884766,True
1116,82,0.0,9.689400030765682e-05,0.19094181060791016,True
1117,5,0.0071428571428571175,0.00010214999929303303,0.1909341812133789,True
1118,17,0.02857142857142858,0.0001226780004799366,0.19091129302978516,True
1119,1,0.0,0.00010346799899707548,0.1910257339477539,True
1120,10,0.0,0.00010582599861663766,0.19098758697509766,True
1121,5,0.0,9.922900062520057e-05,0.19094181060791016,True
1122,86,0.0,0.0001287199993385002,0.19094181060791016,True
1123,232,0.021428571428571463,9.820500054047443e-05,0.1909189224243164,True
1124,139,0.0,0.00010811999891302548,0.19094181060791016,True
1125,290,0.0,9.71629997366108e-05,0.19094181060791016,True
1126,35,0.0,9.926999700837769e-05,0.19094181060791016,True
1127,125,0.0,9.998899986385368e-05,0.19094181060791016,True
1128,110,0.02857142857142858,9.996199878514744e-05,0.19091129302978516,True
1129,25,0.0071428571428571175,9.649400089983828e-05,0.1909341812133789,True
1130,46,0.0,0.00010469699918758124,0.19094181060791016,True
1131,290,0.0,9.499800216872245e-05,0.19094181060791016,True
1132,17,0.0071428571428571175,9.715399937704206e-05,0.1909341812133789,True
1133,46,0.0,9.796700032893568e-05,0.19094181060791016,True
1134,69,0.0,9.852199946180917e-05,0.19094181060791016,True
1135,17,0.0,9.840400161920115e-05,0.19094181060791016,True
1136,259,0.0,0.000172159998328425,0.19094181060791016,True
1137,158,0.0,9.630099884816445e-05,0.19094181060791016,True
1138,139,0.0,0.00015498300126637332,0.19094181060791016,True
1139,158,0.0,0.0001227999964612536,0.19094181060791016,True
1140,5,0.0071428571428571175,9.770499673322774e-05,0.1909341812133789,True
1141,5,0.0,9.689799844636582e-05,0.19094181060791016,True
1142,51,0.07857142857142863,9.828999827732332e-05,0.1908578872680664,True
1143,158,0.0,9.898899952531792e-05,0.19094181060791016,True
1144,102,0.0,9.753199992701411e-05,0.19094181060791016,True
1145,192,0.0,9.609900007490069e-05,0.19094181060791016,True
1146,158,0.0071428571428571175,0.0001084729992726352,0.1909341812133789,True
1147,25,0.0,9.71590015979018e-05,0.19094181060791016,True
1148,21,0.0071428571428571175,9.627499821363017e-05,0.1909341812133789,True
1149,82,0.0,0.00011223999899812043,0.19094181060791016,True
1150,25,0.0071428571428571175,0.0001264730017283,0.1909341812133789,True
1151,98,0.0,9.583200153429061e-05,0.19094181060791016,True
1152,17,0.0,0.00010099299834109843,0.19094181060791016,True
1153,46,0.0,9.928199870046228e-05,0.19094181060791016,True
1154,1,0.06428571428571428,0.00010204700083704665,0.19095706939697266,True
1155,98,0.0071428571428571175,9.96509988908656e-05,0.1909341812133789,True
1156,139,0.0,9.737800064613111e-05,0.19094181060791016,True
1157,102,0.0071428571428571175,9.932200191542506e-05,0.1909341812133789,True
1158,159,0.0,9.798399696592242e-05,0.19094181060791016,True
1159,290,0.021428571428571463,0.00010247300087939948,0.1909189224243164,True
1160,10,0.0,0.00010111499796039425,0.19098758697509766,True
1161,5,0.0,9.851099821389653e-05,0.19094181060791016,True
1162,44,0.0,9.602299905964173e-05,0.19094181060791016,True
1163,198,0.0,0.00010628899690345861,0.19094181060791016,True
1164,17,0.0071428571428571175,9.603999933460727e-05,0.1909341812133789,True
1165,159,0.0,0.00010601800022413954,0.19094181060791016,True
1166,46,0.0,0.00012835000234190375,0.19094181060791016,True
1167,10,0.0,0.00010081499931402504,0.19098758697509766,True
1168,17,0.0,9.83339996309951e-05,0.19094181060791016,True
1169,137,0.0,9.640400094212964e-05,0.19094181060791016,True
1170,1,0.0071428571428571175,0.0001032979998853989,0.19101810455322266,True
1171,44,0.0,0.00011476500003482215,0.19094181060791016,True
1172,35,0.0,9.624900121707469e-05,0.19094181060791016,True
1173,46,0.0,9.544600106892176e-05,0.19094181060791016,True
1174,10,0.0,0.00010377999933552928,0.19098758697509766,True
1175,49,0.0071428571428571175,9.620499986340292e-05,0.1909341812133789,True
1176,193,0.0,9.666499681770802e-05,0.19094181060791016,True
1177,211,0.0071428571428571175,9.581899939803407e-05,0.1909341812133789,True
1178,134,0.0,9.7799002105603e-05,0.19094181060791016,True
1179,5,0.02857142857142858,9.74829999904614e-05,0.19091129302978516,True
1180,35,0.021428571428571463,9.919600051944144e-05,0.1909189224243164,True
1181,35,0.014285714285714235,9.605000013834797e-05,0.19092655181884766,True
1182,125,0.0,9.57650008786004e-05,0.19094181060791016,True
1183,82,0.0,9.540099927107804e-05,0.19094181060791016,True
1184,35,0.0,9.870600115391426e-05,0.19094181060791016,True
1185,1,0.0357142857142857,0.00010059000123874284,0.19098758697509766,True
1186,100,0.0,9.591100024408661e-05,0.19094181060791016,True
1187,159,0.0071428571428571175,0.00010021799971582368,0.1909341812133789,True
1188,10,0.0,0.00010331500016036443,0.19098758697509766,True
1189,193,0.0071428571428571175,9.649999992689118e-05,0.1909341812133789,True
1190,259,0.0,0.00010054300219053403,0.19094181060791016,True
1191,21,0.0,9.555699944030493e-05,0.19094181060791016,True
1192,17,0.0071428571428571175,0.00011576800170587376,0.1909341812133789,True
1193,1,0.0071428571428571175,0.00010191799810854718,0.19101810455322266,True
1194,71,0.014285714285714235,9.965999925043434e-05,0.19092655181884766,True
1195,100,0.0,9.75479997578077e-05,0.19094181060791016,True
1196,1,0.0,0.00010288799967383966,0.1910257339477539,True
1197,109,0.0,9.633300214773044e-05,0.19094181060791016,True
1198,22,0.02857142857142858,9.733900151331909e-05,0.19091129302978516,True
1199,82,0.0,9.634999878471717e-05,0.19094181060791016,True
1200,102,0.0071428571428571175,0.00012838900147471577,0.1909341812133789,True
1201,46,0.0,0.0001086390002456028,0.19094181060791016,True
1202,5,0.0071428571428571175,9.914700058288872e-05,0.1909341812133789,True
1203,1,0.0,0.00013183100236346945,0.1910257339477539,True
1204,82,0.0,9.832100113271736e-05,0.19094181060791016,True
1205,25,0.0071428571428571175,9.844699889072217e-05,0.1909341812133789,True
1206,102,0.0,9.67920022958424e-05,0.19094181060791016,True
1207,46,0.0,9.974999920814298e-05,0.19094181060791016,True
1208,69,0.0,0.00010896000094362535,0.19094181060791016,True
1209,82,0.0,0.000101044999610167,0.19094181060791016,True
1210,82,0.0,9.865100219030865e-05,0.19094181060791016,True
1211,481,0.0,9.620399941923097e-05,0.19094181060791016,False
1212,82,0.0,9.915600094245747e-05,0.19094181060791016,True
1213,44,0.0071428571428571175,9.866799882729538e-05,0.1909341812133789,True
1214,10,0.0,0.00010255099914502352,0.19098758697509766,True
1215,82,0.0,9.711700113257393e-05,0.19094181060791016,True
1216,22,0.0,9.645099999033846e-05,0.19094181060791016,True
1217,98,0.0071428571428571175,0.00010484299855306745,0.1909341812133789,True
1218,22,0.0,9.512999895378016e-05,0.19094181060791016,True
1219,49,0.050000000000000044,0.00010525400284677744,0.1908884048461914,True
1220,10,0.0,9.616899842512794e-05,0.19094181060791016,True
1221,21,0.05714285714285716,0.00011287099914625287,0.19088077545166016,True
1222,10,0.0,9.796800077310763e-05,0.19094181060791016,True
1223,35,0.0071428571428571175,0.00011990200073341839,0.1909341812133789,True
1224,82,0.0071428571428571175,9.595199662726372e-05,0.1909341812133789,True
1225,10,0.0,0.0001021169991872739,0.19098758697509766,True
1226,1,0.0,0.00011606000043684617,0.1910257339477539,True
1227,46,0.0,0.00010623699927236885,0.19094181060791016,True
1228,17,0.0,0.00011186199844814837,0.19094181060791016,True
1229,158,0.0071428571428571175,9.642399891163222e-05,0.1909341812133789,True
1230,5,0.0,9.73230016825255e-05,0.19094181060791016,True
1231,5,0.014285714285714235,9.70820001384709e-05,0.19092655181884766,True
1232,98,0.02857142857142858,9.535199933452532e-05,0.19091129302978516,True
1233,139,0.0071428571428571175,9.943499753717333e-05,0.1909341812133789,True
1234,17,0.0,9.705199772724882e-05,0.19094181060791016,True
1235,10,0.0071428571428571175,9.629100168240257e-05,0.1909341812133789,True
1236,149,0.0,9.61599980655592e-05,0.19094181060791016,True
1237,201,0.0,9.671199950389564e-05,0.19094181060791016,True
1238,192,0.0,9.500200030743144e-05,0.19094181060791016,True
1239,35,0.0,9.670899817137979e-05,0.19094181060791016,True
1240,245,0.0,9.677900015958585e-05,0.19094181060791016,True
1241,46,0.0,9.582400161889382e-05,0.19094181060791016,True
1242,57,0.0,9.50539979385212e-05,0.19094181060791016,True
1243,136,0.021428571428571463,0.00010466099774930626,0.1909189224243164,True
1244,35,0.014285714285714235,9.754300117492676e-05,0.19092655181884766,True
1245,290,0.0,9.627300096326508e-05,0.19094181060791016,True
1246,82,0.0,9.506700007477775e-05,0.19094181060791016,True
1247,82,0.0,0.00011091100168414414,0.19094181060791016,True
1248,1,0.0071428571428571175,0.00010992299939971417,0.19101810455322266,True
1249,1,0.014285714285714235,0.00010230200132355094,0.1910104751586914,True
1250,86,0.0071428571428571175,9.948400111170486e-05,0.1909341812133789,True
1251,232,0.0071428571428571175,0.00012198399781482294,0.1909341812133789,True
1252,85,0.0,9.579399920767173e-05,0.19094181060791016,True
1253,232,0.0,9.718100045574829e-05,0.19094181060791016,True
1254,211,0.0071428571428571175,0.0001035979985317681,0.1909341812133789,True
1255,49,0.0357142857142857,9.66179977694992e-05,0.1909036636352539,True
1256,5,0.0071428571428571175,9.767599840415642e-05,0.1909341812133789,True
1257,98,0.0,9.596199743100442e-05,0.19094181060791016,True
1258,35,0.0,9.727100041345693e-05,0.19094181060791016,True
1259,35,0.0071428571428571175,9.734700142871588e-05,0.1909341812133789,True
1260,245,0.0,9.575800140737556e-05,0.19094181060791016,True
1261,10,0.0,0.00010930400094366632,0.19098758697509766,True
1262,10,0.0,9.588900138624012e-05,0.19094181060791016,True
1263,159,0.0,9.572500130161643e-05,0.19094181060791016,True
1264,22,0.0,9.805000081541948e-05,0.19094181060791016,True
1265,158,0.0,9.728500299388543e-05,0.19094181060791016,True
1266,10,0.0071428571428571175,0.00011305099906167015,0.1909799575805664,True
1267,17,0.0071428571428571175,9.795200094231404e-05,0.1909341812133789,True
1268,17,0.0,9.72319976426661e-05,0.19094181060791016,True
1269,46,0.0,9.773799683898687e-05,0.19094181060791016,True
1270,259,0.0,9.885400140774436e-05,0.19094181060791016,True
1271,137,0.0,9.604899969417602e-05,0.19094181060791016,True
1272,211,0.0,0.0001066189979610499,0.19094181060791016,True
1273,5,0.0,9.702899842523038e-05,0.19094181060791016,True
1274,46,0.0,9.57589982135687e-05,0.19094181060791016,True
1275,69,0.0,0.00010457799726282246,0.19094181060791016,True
1276,86,0.0071428571428571175,9.66260013228748e-05,0.1909341812133789,True
1277,98,0.0,9.722500180942006e-05,0.19094181060791016,True
1278,21,0.0071428571428571175,9.874399984255433e-05,0.1909341812133789,True
1279,5,0.014285714285714235,0.00010531900261412375,0.19092655181884766,True
1280,110,0.0071428571428571175,9.673099702922627e-05,0.1909341812133789,True
1281,237,0.014285714285714235,9.881499863695353e-05,0.19092655181884766,True
1282,192,0.0,0.00010611799734761007,0.19094181060791016,True
1283,290,0.0071428571428571175,0.00010021599882747978,0.1909341812133789,True
1284,46,0.0,9.633999798097648e-05,0.19094181060791016,True
1285,82,0.0,0.00011401400115573779,0.19094181060791016,True
1286,44,0.0,9.722899994812906e-05,0.19094181060791016,True
1287,5,0.0,9.79369979177136e-05,0.19094181060791016,True
1288,46,0.0,9.666200276114978e-05,0.19094181060791016,True
1289,158,0.021428571428571463,9.8643999081105e-05,0.1909189224243164,True
1290,17,0.0,9.99489966488909e-05,0.19094181060791016,True
1291,1,0.0,0.00010178100274060853,0.1910257339477539,True
1292,198,0.0,9.533499905955978e-05,0.19094181060791016,True
1293,194,0.05714285714285716,0.00012048599819536321,0.19088077545166016,True
1294,46,0.0,0.0001108210017264355,0.19094181060791016,True
1295,144,0.0,0.00011298000026727095,0.19094181060791016,True
1296,209,0.0,9.65510007517878e-05,0.19094181060791016,True
1297,5,0.0,9.83240024652332e-05,0.19094181060791016,True
1298,86,0.0,9.435900210519321e-05,0.19094181060791016,True
1299,86,0.0,9.697099812910892e-05,0.19094181060791016,True
1300,17,0.0,9.999900066759437e-05,0.19094181060791016,True
1301,82,0.0071428571428571175,0.00010004300202126615,0.1909341812133789,True
1302,17,0.0,9.74890026554931e-05,0.19094181060791016,True
1303,193,0.0,0.00010210899927187711,0.19094181060791016,True
1304,5,0.0,0.00010252799984300509,0.19094181060791016,True
1305,139,0.0,0.00011101900236099027,0.19094181060791016,True
1306,25,0.0,0.00018481799997971393,0.19094181060791016,True
1307,233,0.0714285714285714,0.00010920999920926988,0.19086551666259766,True
1308,100,0.0,0.00019543500093277544,0.19094181060791016,True
1309,1,0.0,0.00013436799781629816,0.1910257339477539,True
1310,82,0.0,0.00010206799925072119,0.19094181060791016,True
1311,158,0.02857142857142858,0.00010846900113392621,0.19091129302978516,True
1312,86,0.0,9.958200098481029e-05,0.19094181060791016,True
1313,17,0.0,0.00011416099732741714,0.19094181060791016,True
1314,193,0.0,0.00010520599971641786,0.19094181060791016,True
1315,5,0.0071428571428571175,9.723499897518195e-05,0.1909341812133789,True
1316,71,0.0,0.0001051500003086403,0.19094181060791016,True
1317,5,0.0071428571428571175,9.713299732538871e-05,0.1909341812133789,True
1318,139,0.0,0.00011136100147268735,0.19094181060791016,True
1319,137,0.0,9.662099910201505e-05,0.19094181060791016,True
1320,5,0.0071428571428571175,0.00010594700142974034,0.1909341812133789,True
1321,46,0.0,0.00010265699893352576,0.19094181060791016,True
1322,98,0.0,9.649499770603143e-05,0.19094181060791016,True
1323,25,0.0,9.67029991443269e-05,0.19094181060791016,True
1324,17,0.0,9.764999776962213e-05,0.19094181060791016,True
1325,139,0.0071428571428571175,9.684000178822316e-05,0.1909341812133789,True
1326,22,0.0071428571428571175,9.846399916568771e-05,0.1909341812133789,True
1327,102,0.0071428571428571175,9.527700240141712e-05,0.1909341812133789,True
1328,46,0.0,9.601800047676079e-05,0.19094181060791016,True
1329,193,0.0,9.478299762122333e-05,0.19094181060791016,True
1330,102,0.0,9.505300113232806e-05,0.19094181060791016,True
1331,233,0.05714285714285716,0.00017218799985130318,0.19088077545166016,True
1332,82,0.0,0.0001103510003304109,0.19094181060791016,True
1333,109,0.0,0.00010702199870138429,0.19094181060791016,True
1334,46,0.0,0.00011932800043723546,0.19094181060791016,True
1335,46,0.0,9.621500066714361e-05,0.19094181060791016,True
1336,82,0.0,0.00011397299749660306,0.19094181060791016,True
1337,193,0.0,0.00011958699906244874,0.19094181060791016,True
1338,82,0.0,9.707899880595505e-05,0.19094181060791016,True
1339,109,0.0,0.00011232600081712008,0.19094181060791016,True
1340,5,0.0,0.00010570800077402964,0.19094181060791016,True
1341,35,0.0071428571428571175,0.0001025019992084708,0.1909341812133789,True
1342,70,0.0,0.00011101999916718341,0.19094181060791016,True
1343,25,0.0,0.00012753700139001012,0.19094181060791016,True
1344,17,0.0,9.578800018061884e-05,0.19094181060791016,True
1345,46,0.0,9.532100011711009e-05,0.19094181060791016,True
1346,139,0.0,0.00013507500261766836,0.19094181060791016,True
1347,5,0.0,9.619100092095323e-05,0.19094181060791016,True
1348,102,0.0071428571428571175,0.00011128199912491255,0.1909341812133789,True
1349,46,0.0,9.62289996095933e-05,0.19094181060791016,True
1350,22,0.0071428571428571175,0.00012567500016302802,0.1909341812133789,True
1351,5,0.0071428571428571175,0.00010507799743209034,0.1909341812133789,True
1352,51,0.0,9.729999874252826e-05,0.19094181060791016,True
1353,10,0.0,0.00010280599963152781,0.19094181060791016,True
1354,137,0.0,0.00010690500130294822,0.19094181060791016,True
1355,35,0.0071428571428571175,9.706600030767731e-05,0.1909341812133789,True
1356,10,0.0,9.69949978752993e-05,0.19094181060791016,True
1357,10,0.0071428571428571175,0.00010104699686053209,0.1909799575805664,True
1358,82,0.0,0.00010977599959005602,0.19094181060791016,True
1359,17,0.0071428571428571175,9.707100252853706e-05,0.1909341812133789,True
1360,102,0.0,9.680500079412013e-05,0.19094181060791016,True
1361,1,0.0,0.00010201199984294362,0.1910257339477539,True
1362,49,0.021428571428571463,0.00010030799967353232,0.1909189224243164,True
1363,102,0.0,0.00010438599929329939,0.19094181060791016,True
1364,5,0.0071428571428571175,0.00012053500176989473,0.1909341812133789,True
1365,17,0.0,9.960999886970967e-05,0.19094181060791016,True
1366,46,0.0,9.649499770603143e-05,0.19094181060791016,True
1367,139,0.0,9.935400157701224e-05,0.19094181060791016,True
1368,35,0.02857142857142858,0.00011635999908321537,0.19091129302978516,True
1369,273,0.0,9.682000018074177e-05,0.19094181060791016,True
1370,22,0.05714285714285716,9.669100109022111e-05,0.19088077545166016,True
1371,85,0.0,0.00010800599920912646,0.19094181060791016,True
1372,22,0.0,0.00010033500075223856,0.19094181060791016,True
1373,44,0.0071428571428571175,9.764199785422534e-05,0.1909341812133789,True
1374,44,0.0071428571428571175,0.00012007999976049177,0.1909341812133789,True
1375,203,0.0,9.885799954645336e-05,0.19094181060791016,True
1376,35,0.0,9.879700155579485e-05,0.19094181060791016,True
1377,44,0.0,0.00010018899774877355,0.19094181060791016,True
1378,44,0.0,9.674399916548282e-05,0.19094181060791016,True
1379,21,0.0071428571428571175,9.856600081548095e-05,0.1909341812133789,True
1380,46,0.0,9.53859998844564e-05,0.19094181060791016,True
1381,110,0.014285714285714235,9.809800030780025e-05,0.19092655181884766,True
1382,211,0.014285714285714235,9.750599929247983e-05,0.19092655181884766,True
1383,35,0.0071428571428571175,0.0001261590005015023,0.1909341812133789,True
1384,46,0.0,9.602099817129783e-05,0.19094181060791016,True
1385,17,0.0,0.00010671400013961829,0.19094181060791016,True
1386,144,0.021428571428571463,9.613099973648787e-05,0.1909189224243164,True
1387,290,0.0,9.915000191540457e-05,0.19094181060791016,True
1388,49,0.0071428571428571175,0.00011092000204371288,0.1909341812133789,True
1389,17,0.0,0.00011212099707336165,0.19094181060791016,True
1390,52,0.0,9.63870006671641e-05,0.19094181060791016,True
1391,82,0.0071428571428571175,0.00011209899821551517,0.1909341812133789,True
1392,145,0.1071428571428571,9.540700193610974e-05,0.1908273696899414,True
1393,35,0.0,9.509499795967713e-05,0.19094181060791016,True
1394,5,0.0071428571428571175,9.749699893291108e-05,0.1909341812133789,True
1395,21,0.0,9.764700007508509e-05,0.19094181060791016,True
1396,49,0.0,0.00011053499838453718,0.19094181060791016,True
1397,10,0.0,0.00010131799717782997,0.19094181060791016,True
1398,86,0.0071428571428571175,9.648899867897853e-05,0.1909341812133789,True
1399,44,0.0,9.628300176700577e-05,0.19094181060791016,True
1400,46,0.0,9.605800005374476e-05,0.19094181060791016,True
1401,10,0.0071428571428571175,0.00010154499977943487,0.1909799575805664,True
1402,1,0.0071428571428571175,0.00010123000174644403,0.19101810455322266,True
1403,1,0.0,0.00010121800005435944,0.1910257339477539,True
1404,57,0.0,9.567400047671981e-05,0.19094181060791016,True
1405,70,0.0071428571428571175,9.602100180927664e-05,0.1909341812133789,True
1406,22,0.014285714285714235,0.00010474199734744616,0.19092655181884766,True
1407,25,0.0071428571428571175,9.750699973665178e-05,0.1909341812133789,True
1408,10,0.0,9.597700045560487e-05,0.19094181060791016,True
1409,255,0.0,9.558400051901117e-05,0.19094181060791016,True
1410,100,0.0,9.697099812910892e-05,0.19094181060791016,True
1411,10,0.0,9.939200026565231e-05,0.19098758697509766,True
1412,71,0.021428571428571463,0.00010114200267707929,0.1909189224243164,True
1413,203,0.0,9.506100104772486e-05,0.19094181060791016,True
1414,102,0.09999999999999998,9.5211998996092e-05,0.19083499908447266,True
1415,35,0.0071428571428571175,9.71570007095579e-05,0.1909341812133789,True
1416,98,0.0,9.535600111121312e-05,0.19094181060791016,True
1417,1,0.0,0.00010615200153551996,0.1910257339477539,True
1418,109,0.0,9.519000013824552e-05,0.19094181060791016,True
1419,5,0.0071428571428571175,9.680600123829208e-05,0.1909341812133789,True
1420,46,0.0,0.00011301400081720203,0.19094181060791016,True
1421,100,0.014285714285714235,9.73109999904409e-05,0.19092655181884766,True
1422,82,0.0,9.506500282441266e-05,0.19094181060791016,True
1423,69,0.0,0.0002427319996058941,0.19094181060791016,True
1424,46,0.0,0.00010277800174662843,0.19094181060791016,True
1425,290,0.0,9.933399996953085e-05,0.19094181060791016,True
1426,46,0.0,9.907000276143663e-05,0.19094181060791016,True
1427,25,0.0,9.659699935582466e-05,0.19094181060791016,True
1428,5,0.0071428571428571175,9.878700075205415e-05,0.1909341812133789,True
1429,193,0.0,9.505799971520901e-05,0.19094181060791016,True
1430,10,0.0,9.844399755820632e-05,0.19094181060791016,True
1431,193,0.0,9.923600009642541e-05,0.19094181060791016,True
1432,102,0.0071428571428571175,9.813100041355938e-05,0.1909341812133789,True
1433,86,0.0,9.791499905986711e-05,0.19094181060791016,True
1434,5,0.0,9.870800204225816e-05,0.19094181060791016,True
1435,35,0.014285714285714235,9.73919995885808e-05,0.19092655181884766,True
1436,17,0.0,9.783299901755527e-05,0.19094181060791016,True
1437,98,0.0,9.678300193627365e-05,0.19094181060791016,True
1438,5,0.0,9.828100155573338e-05,0.19094181060791016,True
1439,25,0.0,9.730800229590386e-05,0.19094181060791016,True
1440,100,0.0,9.984799908124842e-05,0.19094181060791016,True
1441,17,0.0,9.767199662746862e-05,0.19094181060791016,True
1442,17,0.0,9.783399946172722e-05,0.19094181060791016,True
1443,232,0.0,9.648999912315048e-05,0.19094181060791016,True
1444,139,0.0,0.0001073240018740762,0.19094181060791016,True
1445,71,0.0,0.00012888900164398365,0.19094181060791016,True
1446,245,0.0,9.618900003260933e-05,0.19094181060791016,True
1447,17,0.0071428571428571175,9.732000035000965e-05,0.1909341812133789,True
1448,22,0.0071428571428571175,9.627200051909313e-05,0.1909341812133789,True
1449,17,0.0,9.963599950424396e-05,0.19094181060791016,True
1450,233,0.014285714285714235,9.651199798099697e-05,0.19092655181884766,True
1451,70,0.014285714285714235,9.671500083641149e-05,0.19092655181884766,True
1452,290,0.0,9.586099986336194e-05,0.19094181060791016,True
1453,5,0.0,9.617199975764379e-05,0.19094181060791016,True
1454,98,0.0,0.00010687100075301714,0.19094181060791016,True
1455,290,0.0071428571428571175,9.663899982115254e-05,0.1909341812133789,True
1456,139,0.0,9.576600132277235e-05,0.19094181060791016,True
1457,158,0.0071428571428571175,9.575100193615071e-05,0.1909341812133789,True
1458,137,0.0,9.600000339560211e-05,0.19094181060791016,True
1459,17,0.0071428571428571175,9.670600047684275e-05,0.1909341812133789,True
1460,52,0.0,9.862300066743046e-05,0.19094181060791016,True
1461,5,0.0071428571428571175,9.940100062522106e-05,0.1909341812133789,True
1462,71,0.0071428571428571175,9.767399751581252e-05,0.1909341812133789,True
1463,10,0.0,0.0001024999983201269,0.19098758697509766,True
1464,46,0.0,0.0001108090000343509,0.19094181060791016,True
1465,17,0.0,9.778000094229355e-05,0.19094181060791016,True
1466,10,0.0,9.991600018111058e-05,0.19094181060791016,True
1467,9,0.0071428571428571175,9.740799941937439e-05,0.1909341812133789,True
1468,109,0.0,9.56799995037727e-05,0.19094181060791016,True
1469,46,0.0,9.719899753690697e-05,0.19094181060791016,True
1470,46,0.0,9.480600056122057e-05,0.19094181060791016,True
1471,71,0.0071428571428571175,9.746400246513076e-05,0.1909341812133789,True
1472,290,0.0071428571428571175,9.554500138619915e-05,0.1909341812133789,True
1473,290,0.0071428571428571175,9.811900235945359e-05,0.1909341812133789,True
1474,5,0.0,9.654599853092805e-05,0.19094181060791016,True
1475,1,0.0,0.00010110000221175142,0.1910257339477539,True
1476,17,0.0,0.00010909200136666186,0.19094181060791016,True
1477,139,0.0071428571428571175,9.622800280340016e-05,0.1909341812133789,True
1478,290,0.0,9.517299986327998e-05,0.19094181060791016,True
1479,35,0.0,9.641599899623543e-05,0.19094181060791016,True
1480,232,0.0071428571428571175,0.00012985699868295342,0.1909341812133789,True
1481,25,0.021428571428571463,9.692100138636306e-05,0.1909189224243164,True
1482,249,0.0,0.00011132600047858432,0.19094181060791016,True
1483,102,0.0,9.752600089996122e-05,0.19094181060791016,True
1484,255,0.0,9.597000098438002e-05,0.19094181060791016,True
1485,35,0.0,9.586799933458678e-05,0.19094181060791016,True
1486,49,0.014285714285714235,9.781500193639658e-05,0.19092655181884766,True
1487,134,0.014285714285714235,9.79350006673485e-05,0.19092655181884766,True
1488,82,0.0,9.719300214783289e-05,0.19094181060791016,True
1489,35,0.0071428571428571175,9.803400098462589e-05,0.1909341812133789,True
1490,192,0.0,9.516399950371124e-05,0.19094181060791016,True
1491,193,0.0,0.0001095850020647049,0.19094181060791016,True
1492,1,0.0,0.00010189500244450755,0.1910257339477539,True
1493,259,0.0071428571428571175,0.00011047099906136282,0.1909341812133789,True
1494,44,0.014285714285714235,9.844399755820632e-05,0.19092655181884766,True
1495,1,0.0,0.00010395299977972172,0.1910257339477539,True
1496,249,0.014285714285714235,0.00010070300049846992,0.19092655181884766,True
1497,35,0.0,0.00011259299935773015,0.19094181060791016,True
1498,100,0.0,9.815299927140586e-05,0.19094181060791016,True
1499,52,0.0,9.97849965642672e-05,0.19094181060791016,True
1500,98,0.0,9.668200073065236e-05,0.19094181060791016,True
1501,10,0.014285714285714235,0.0001048259982781019,0.19097232818603516,True
1502,10,0.0,9.877599950414151e-05,0.19094181060791016,True
1503,10,0.0,0.00010224899961031042,0.19094181060791016,True
1504,35,0.0071428571428571175,0.0001035049972415436,0.1909341812133789,True
1505,259,0.0,0.00011006700151483528,0.19094181060791016,True
1506,17,0.0,0.00010372799806646071,0.19094181060791016,True
1507,10,0.0,0.00010082099834107794,0.19098758697509766,True
1508,82,0.0,9.584300278220326e-05,0.19094181060791016,True
1509,98,0.0,9.480800144956447e-05,0.19094181060791016,True
1510,25,0.0,9.584200233803131e-05,0.19094181060791016,True
1511,10,0.0,9.919099829858169e-05,0.19098758697509766,True
1512,82,0.0,9.468600183026865e-05,0.19094181060791016,True
1513,17,0.0,9.759999738889746e-05,0.19094181060791016,True
1514,145,0.0714285714285714,0.00010884600123972632,0.19086551666259766,True
1515,82,0.0,9.76189985522069e-05,0.19094181060791016,True
1516,290,0.0071428571428571175,9.808200047700666e-05,0.1909341812133789,True
1517,5,0.0071428571428571175,9.716999920783564e-05,0.1909341812133789,True
1518,46,0.0,9.565599975758232e-05,0.19094181060791016,True
1519,5,0.02857142857142858,9.642399891163222e-05,0.19091129302978516,True
1520,46,0.0,9.574700015946291e-05,0.19094181060791016,True
1521,158,0.0071428571428571175,9.571700138621964e-05,0.1909341812133789,True
1522,46,0.0,9.528699956717901e-05,0.19094181060791016,True
1523,10,0.0,9.678499918663874e-05,0.19094181060791016,True
1524,82,0.0,9.628900079405867e-05,0.19094181060791016,True
1525,60,0.0071428571428571175,9.859600322670303e-05,0.1909341812133789,True
1526,35,0.014285714285714235,9.943299664882943e-05,0.19092655181884766,True
1527,82,0.0,9.515199781162664e-05,0.19094181060791016,True
1528,82,0.0,9.940400195773691e-05,0.19094181060791016,True
1529,134,0.0071428571428571175,9.511499956715852e-05,0.1909341812133789,True
1530,17,0.0,9.673900058260188e-05,0.19094181060791016,True
1531,44,0.0,0.00010362299872213043,0.19094181060791016,True
1532,201,0.0,9.579299876349978e-05,0.19094181060791016,True
1533,46,0.0,9.633799709263258e-05,0.19094181060791016,True
1534,22,0.0,9.55239993345458e-05,0.19094181060791016,True
1535,290,0.0,9.832700015977025e-05,0.19094181060791016,True
1536,134,0.0,9.577699893270619e-05,0.19094181060791016,True
1537,22,0.0,9.624499944038689e-05,0.19094181060791016,True
1538,137,0.0,9.610499910195358e-05,0.19094181060791016,True
1539,233,0.0714285714285714,0.0001025019992084708,0.19086551666259766,True
1540,35,0.0,9.564199717715383e-05,0.19094181060791016,True
1541,109,0.0,9.703300020191818e-05,0.19094181060791016,True
1542,109,0.0,9.49179993767757e-05,0.19094181060791016,True
1543,158,0.0,0.0001086269985535182,0.19094181060791016,True
1544,17,0.0,0.00011356300092302263,0.19094181060791016,True
1545,5,0.0,0.00012925400005769916,0.19094181060791016,True
1546,10,0.0,0.00011476900181150995,0.19098758697509766,True
1547,25,0.0,0.000103446000139229,0.19094181060791016,True
1548,35,0.0071428571428571175,9.680200309958309e-05,0.1909341812133789,True
1549,145,0.021428571428571463,9.734299965202808e-05,0.1909189224243164,True
1550,35,0.0071428571428571175,9.67050000326708e-05,0.1909341812133789,True
1551,139,0.0,0.00011308000102872029,0.19094181060791016,True
1552,70,0.0,0.00010241499694529921,0.19094181060791016,True
1553,71,0.0,9.546400178805925e-05,0.19094181060791016,True
1554,46,0.0,9.506700007477775e-05,0.19094181060791016,True
1555,1,0.0,0.00010053000005427748,0.1910257339477539,True
1556,49,0.021428571428571463,9.752099867910147e-05,0.1909189224243164,True
1557,158,0.0071428571428571175,9.605499872122891e-05,0.1909341812133789,True
1558,109,0.0,0.00010452499918756075,0.19094181060791016,True
1559,1,0.0071428571428571175,0.00011174599785590544,0.19101810455322266,True
1560,192,0.014285714285714235,9.852099901763722e-05,0.19092655181884766,True
1561,69,0.0,0.00010392399781267159,0.19094181060791016,True
1562,44,0.0,0.00010364199988543987,0.19094181060791016,True
1563,5,0.0,9.805100125959143e-05,0.19094181060791016,True
1564,44,0.0071428571428571175,9.737099753692746e-05,0.1909341812133789,True
1565,5,0.0071428571428571175,0.00011474299753899686,0.1909341812133789,True
1566,35,0.0,9.479499931330793e-05,0.19094181060791016,True
1567,69,0.0,9.624700032873079e-05,0.19094181060791016,True
1568,82,0.0071428571428571175,9.689299986348487e-05,0.1909341812133789,True
1569,255,0.0,9.633200170355849e-05,0.19094181060791016,True
1570,70,0.0,9.778000094229355e-05,0.19094181060791016,True
1571,17,0.0,9.627100007492118e-05,0.19094181060791016,True
1572,139,0.0,9.59919998422265e-05,0.19094181060791016,True
1573,10,0.0071428571428571175,0.00010064299931400456,0.1909799575805664,True
1574,35,0.0,0.00012297300054342486,0.19094181060791016,True
1575,149,0.0,0.0001093339997169096,0.19094181060791016,True
1576,192,0.0,9.574200157658197e-05,0.19094181060791016,True
1577,272,0.014285714285714235,0.00010701700011850335,0.19092655181884766,True
1578,290,0.0,0.0001749300026858691,0.19094181060791016,True
1579,1,0.0,0.00010369300071033649,0.1910257339477539,True
1580,158,0.0071428571428571175,9.754500206327066e-05,0.1909341812133789,True
1581,5,0.0,9.915400005411357e-05,0.19094181060791016,True
1582,82,0.0,9.648400009609759e-05,0.19094181060791016,True
1583,10,0.0,9.769600001163781e-05,0.19094181060791016,True
1584,17,0.0071428571428571175,0.00010068399933516048,0.1909341812133789,True
1585,49,0.0,9.959399903891608e-05,0.19094181060791016,True
1586,232,0.0,9.812399730435573e-05,0.19094181060791016,True
1587,100,0.0,9.627300096326508e-05,0.19094181060791016,True
1588,110,0.0357142857142857,9.818499893299304e-05,0.1909036636352539,True
1589,233,0.042857142857142816,0.00012202200014144182,0.19089603424072266,True
1590,57,0.0,9.7154999821214e-05,0.19094181060791016,True
1591,22,0.021428571428571463,0.00017634499818086624,0.1909189224243164,True
1592,290,0.0,0.0001100430017686449,0.19094181060791016,True
1593,17,0.0,0.00014939399989088997,0.19094181060791016,True
1594,10,0.0,0.00010336100240238011,0.19098758697509766,True
1595,46,0.0,0.00011583600280573592,0.19094181060791016,True
1596,158,0.0071428571428571175,0.00011426299897721037,0.1909341812133789,True
1597,211,0.0,9.599299664841965e-05,0.19094181060791016,True
1598,100,0.0071428571428571175,9.869499990600161e-05,0.1909341812133789,True
1599,46,0.0,9.685600161901675e-05,0.19094181060791016,True
1600,17,0.0071428571428571175,0.0001009640000120271,0.1909341812133789,True
1601,17,0.0,0.00011596800322877243,0.19094181060791016,True
1602,17,0.0,9.934899935615249e-05,0.19094181060791016,True
1603,44,0.0,9.535600111121312e-05,0.19094181060791016,True
1604,22,0.0,9.835500168264844e-05,0.19094181060791016,True
1605,49,0.021428571428571463,0.00011740500121959485,0.1909189224243164,True
1606,46,0.0071428571428571175,0.00010404000204289332,0.1909341812133789,True
1607,22,0.0,0.00024643500000820495,0.19094181060791016,True
1608,5,0.0071428571428571175,0.0001900830029626377,0.1909341812133789,True
1609,22,0.0071428571428571175,0.00016563700046390295,0.1909341812133789,True
1610,193,0.0,9.629499982111156e-05,0.19094181060791016,True
1611,51,0.0,0.00010218600073130801,0.19094181060791016,True
1612,10,0.0071428571428571175,0.00010172299880650826,0.1909341812133789,True
1613,35,0.0,0.00011529599942150526,0.19094181060791016,True
1614,82,0.0071428571428571175,9.646900070947595e-05,0.1909341812133789,True
1615,17,0.0,0.00010937299884972163,0.19094181060791016,True
1616,46,0.0,9.58419987000525e-05,0.19094181060791016,True
1617,10,0.0,9.965999925043434e-05,0.19098758697509766,True
1618,17,0.0,9.960399984265678e-05,0.19094181060791016,True
1619,125,0.0,9.606700041331351e-05,0.19094181060791016,True
1620,1,0.0071428571428571175,0.00010106799891218543,0.19101810455322266,True
1621,44,0.0071428571428571175,9.899400174617767e-05,0.1909341812133789,True
1622,46,0.0,0.00010117900092154741,0.19094181060791016,True
1623,5,0.0071428571428571175,9.827500252868049e-05,0.1909341812133789,True
1624,10,0.0,9.954499910236336e-05,0.19098758697509766,True
1625,1,0.0071428571428571175,0.00010902099893428385,0.19101810455322266,True
1626,193,0.0,9.601700003258884e-05,0.19094181060791016,True
1627,102,0.0,9.53130002017133e-05,0.19094181060791016,True
1628,125,0.0,0.00010004800060414709,0.19094181060791016,True
1629,134,0.0,9.737400250742212e-05,0.19094181060791016,True
1630,69,0.0,0.00010890799967455678,0.19094181060791016,True
1631,10,0.0,0.00010176199793932028,0.19094181060791016,True
1632,44,0.0,9.71040026342962e-05,0.19094181060791016,True
1633,35,0.0,9.57589982135687e-05,0.19094181060791016,True
1634,46,0.0,9.49929999478627e-05,0.19094181060791016,True
1635,51,0.0,9.809199764276855e-05,0.19094181060791016,True
1636,233,0.08571428571428574,9.888199929264374e-05,0.19085025787353516,True
1637,98,0.0071428571428571175,0.00013289900016388856,0.1909341812133789,True
1638,44,0.0071428571428571175,9.506299829808995e-05,0.1909341812133789,True
1639,10,0.0,0.00010201199984294362,0.19098758697509766,True
1640,192,0.0,9.572400085744448e-05,0.19094181060791016,True
1641,98,0.0,9.455799954594113e-05,0.19094181060791016,True
1642,57,0.0071428571428571175,9.803799912333488e-05,0.1909341812133789,True
1643,25,0.014285714285714235,9.869299901765771e-05,0.19092655181884766,True
1644,35,0.0071428571428571175,9.881700316327624e-05,0.1909341812133789,True
1645,46,0.0,9.904800026561134e-05,0.19094181060791016,True
1646,35,0.0071428571428571175,9.721899914438836e-05,0.1909341812133789,True
1647,10,0.0,9.655400208430365e-05,0.19094181060791016,True
1648,125,0.0,0.00010351199671276845,0.19094181060791016,True
1649,10,0.0,9.939400115399621e-05,0.19094181060791016,True
1650,35,0.0,9.578000026522204e-05,0.19094181060791016,True
1651,22,0.0,9.497599967289716e-05,0.19094181060791016,True
1652,17,0.0,9.663499804446474e-05,0.19094181060791016,True
1653,17,0.0,9.683800089987926e-05,0.19094181060791016,True
1654,203,0.0,9.543299893266521e-05,0.19094181060791016,True
1655,1,0.0,0.00010027600001194514,0.1910257339477539,True
1656,44,0.0,9.524800043436699e-05,0.19094181060791016,True
1657,69,0.0,9.502499960944988e-05,0.19094181060791016,True
1658,44,0.0071428571428571175,0.00011082000128226355,0.1909341812133789,True
1659,5,0.0071428571428571175,9.72500019997824e-05,0.1909341812133789,True
1660,71,0.1785714285714286,9.601300189387985e-05,0.1907510757446289,True
1661,22,0.0,9.518200022284873e-05,0.19094181060791016,True
1662,70,0.0,9.74690010480117e-05,0.19094181060791016,True
1663,57,0.0071428571428571175,0.00015154199718381278,0.1909341812133789,True
1664,290,0.021428571428571463,9.618100011721253e-05,0.1909189224243164,True
1665,44,0.0,9.875400064629503e-05,0.19094181060791016,True
1666,17,0.0,0.0001122009998653084,0.19094181060791016,True
1667,57,0.0,9.511999815003946e-05,0.19094181060791016,True
1668,100,0.0,0.00010999799997080117,0.19094181060791016,True
1669,102,0.0071428571428571175,9.673999738879502e-05,0.1909341812133789,True
1670,5,0.0,9.797000166145153e-05,0.19094181060791016,True
1671,145,0.02857142857142858,0.00010385300265625119,0.19091129302978516,True
1672,46,0.0071428571428571175,0.00010011199992732145,0.1909341812133789,True
1673,86,0.0,9.563899948261678e-05,0.19094181060791016,True
1674,144,0.0,9.530199895380065e-05,0.19094181060791016,True
1675,52,0.0,9.737499931361526e-05,0.19094181060791016,True
1676,1,0.0,0.0001020480012812186,0.1910257339477539,True
1677,35,0.0071428571428571175,9.664599929237738e-05,0.1909341812133789,True
1678,158,0.0071428571428571175,9.755299834068865e-05,0.1909341812133789,True
1679,1,0.0,0.00010115400073118508,0.1910257339477539,True
1680,52,0.0,9.520000094198622e-05,0.19094181060791016,True
1681,10,0.0,9.588499960955232e-05,0.19094181060791016,True
1682,5,0.0071428571428571175,9.788699753698893e-05,0.1909341812133789,True
1683,1,0.0071428571428571175,0.00010010199912358075,0.19101810455322266,True
1684,17,0.0,9.734899867908098e-05,0.19094181060791016,True
1685,5,0.0,0.00010566899800323881,0.19094181060791016,True
1686,159,0.0071428571428571175,9.644599776947871e-05,0.1909341812133789,True
1687,60,0.0071428571428571175,9.706000128062442e-05,0.1909341812133789,True
1688,134,0.0,0.00011552299838513136,0.19094181060791016,True
1689,57,0.0,9.633399895392358e-05,0.19094181060791016,True
1690,149,0.0,0.00010137700155610219,0.19094181060791016,True
1691,366,0.021428571428571463,0.00018588199964142404,0.1909189224243164,False
1692,86,0.0,0.00010077300248667598,0.19094181060791016,True
1693,110,0.014285714285714235,9.602199861546978e-05,0.19092655181884766,True
1694,102,0.0,0.00010443599967402406,0.19094181060791016,True
1695,5,0.0071428571428571175,0.00011016800272045657,0.1909341812133789,True
1696,233,0.06428571428571428,0.00010563300020294264,0.1908731460571289,True
1697,25,0.0,0.00010308999844710343,0.19094181060791016,True
1698,5,0.0,0.00010184900020249188,0.19094181060791016,True
1699,5,0.0071428571428571175,9.972699990612455e-05,0.1909341812133789,True
1700,100,0.0,9.628000043448992e-05,0.19094181060791016,True
1701,17,0.0,0.00011207699935766868,0.19094181060791016,True
1702,5,0.0,9.779399988474324e-05,0.19094181060791016,True
1703,46,0.0,0.00010048200056189671,0.19094181060791016,True
1704,201,0.0,0.00011318799806758761,0.19094181060791016,True
1705,139,0.0,0.00011558800179045647,0.19094181060791016,True
1706,35,0.042857142857142816,9.968700032914057e-05,0.19089603424072266,True
1707,1,0.0,0.00010164600098505616,0.1910257339477539,True
1708,211,0.0071428571428571175,9.757899897522293e-05,0.1909341812133789,True
1709,139,0.0,9.548500020173378e-05,0.19094181060791016,True
1710,46,0.0,0.00010417399971629493,0.19094181060791016,True
1711,25,0.0071428571428571175,0.00010904700320679694,0.1909341812133789,True
1712,158,0.0071428571428571175,9.579699690220878e-05,0.1909341812133789,True
1713,5,0.0071428571428571175,9.784400026546791e-05,0.1909341812133789,True
1714,109,0.0,9.613099973648787e-05,0.19094181060791016,True
1715,60,0.0,9.854499876382761e-05,0.19094181060791016,True
1716,60,0.0,9.698700159788132e-05,0.19094181060791016,True
1717,134,0.0,9.639199925004505e-05,0.19094181060791016,True
1718,57,0.0,9.556900113238953e-05,0.19094181060791016,True
1719,1,0.0,0.00010056900282506831,0.1910257339477539,True
1720,158,0.014285714285714235,9.552800111123361e-05,0.19092655181884766,True
1721,5,0.0071428571428571175,0.00010898499749600887,0.1909341812133789,True
1722,17,0.0,9.576600132277235e-05,0.19094181060791016,True
1723,110,0.021428571428571463,9.78620009846054e-05,0.1909189224243164,True
1724,35,0.0,9.505799971520901e-05,0.19094181060791016,True
1725,35,0.0,9.627499821363017e-05,0.19094181060791016,True
1726,82,0.0,9.698500070953742e-05,0.19094181060791016,True
1727,51,0.0,9.748699812917039e-05,0.19094181060791016,True
1728,10,0.0,0.00011883299885084853,0.19094181060791016,True
1729,110,0.0714285714285714,9.574299838277511e-05,0.19086551666259766,True
1730,109,0.0,9.492700337432325e-05,0.19094181060791016,True
1731,1,0.0071428571428571175,0.0001032860018312931,0.19101810455322266,True
1732,69,0.0,0.00012623499787878245,0.19094181060791016,True
1733,203,0.0,9.4982999144122e-05,0.19094181060791016,True
1734,10,0.0,0.00010311699952580966,0.19098758697509766,True
1735,25,0.0071428571428571175,9.898799908114597e-05,0.1909341812133789,True
1736,10,0.0,0.0001028279984893743,0.19098758697509766,True
1737,109,0.0,0.00010353700054110959,0.19094181060791016,True
1738,22,0.0,9.554899952490814e-05,0.19094181060791016,True
1739,5,0.0071428571428571175,0.00010210999971604906,0.1909341812133789,True
1740,57,0.0071428571428571175,9.649400089983828e-05,0.1909341812133789,True
1741,259,0.0,9.787800081539899e-05,0.19094181060791016,True
1742,211,0.0,9.651300206314772e-05,0.19094181060791016,True
1743,86,0.0,0.00010372799806646071,0.19094181060791016,True
1744,98,0.0,9.810899791773409e-05,0.19094181060791016,True
1745,86,0.0,9.513800250715576e-05,0.19094181060791016,True
1746,46,0.0,9.667099948273972e-05,0.19094181060791016,True
1747,51,0.0,9.613799920771271e-05,0.19094181060791016,True
1748,110,0.021428571428571463,9.691899686004035e-05,0.1909189224243164,True
1749,52,0.0,0.00010389399903942831,0.19094181060791016,True
1750,69,0.0,9.506000060355291e-05,0.19094181060791016,True
1751,17,0.0071428571428571175,9.696800043457188e-05,0.1909341812133789,True
1752,82,0.0,9.628399857319891e-05,0.19094181060791016,True
1753,290,0.0,0.00010058800035039894,0.19094181060791016,True
1754,71,0.0071428571428571175,9.766400035005063e-05,0.1909341812133789,True
1755,17,0.0071428571428571175,0.00013124200268066488,0.1909341812133789,True
1756,86,0.0,0.000119345000712201,0.19094181060791016,True
1757,82,0.0071428571428571175,9.949000013875775e-05,0.1909341812133789,True
1758,237,0.0,9.797700113267638e-05,0.19094181060791016,True
1759,17,0.0,9.957399743143469e-05,0.19094181060791016,True
1760,109,0.0,9.918200157699175e-05,0.19094181060791016,True
1761,203,0.0,0.00011420400187489577,0.19094181060791016,True
1762,5,0.0071428571428571175,0.00011272499978076667,0.1909341812133789,True
1763,10,0.0,9.681300070951693e-05,0.19094181060791016,True
1764,109,0.0,9.71609988482669e-05,0.19094181060791016,True
1765,46,0.0,9.685799886938184e-05,0.19094181060791016,True
1766,44,0.0,9.8257001809543e-05,0.19094181060791016,True
1767,46,0.0,9.675999899627641e-05,0.19094181060791016,True
1768,22,0.0071428571428571175,0.00010605999705148861,0.1909341812133789,True
1769,193,0.0,9.598299948265776e-05,0.19094181060791016,True
1770,17,0.0071428571428571175,0.0001008829967759084,0.1909341812133789,True
1771,5,0.0,0.0001370169993606396,0.19094181060791016,True
1772,211,0.0,9.56799995037727e-05,0.19094181060791016,True
1773,139,0.0,9.6163999842247e-05,0.19094181060791016,True
1774,46,0.0,9.546200089971535e-05,0.19094181060791016,True
1775,209,0.014285714285714235,0.00010371099779149517,0.19092655181884766,True
1776,102,0.0071428571428571175,9.590500121703371e-05,0.1909341812133789,True
1777,57,0.0,9.524300185148604e-05,0.19094181060791016,True
1778,290,0.0,9.70069995673839e-05,0.19094181060791016,True
1779,5,0.0071428571428571175,9.911499728332274e-05,0.1909341812133789,True
1780,21,0.0071428571428571175,0.00012090000018361025,0.1909341812133789,True
1781,10,0.0,0.00012476199844968505,0.19098758697509766,True
1782,1,0.0071428571428571175,0.0002161350021196995,0.19101810455322266,True
1783,1,0.0,0.00010284000018145889,0.1910257339477539,True
1784,290,0.0071428571428571175,0.00010030600242316723,0.1909341812133789,True
1785,10,0.0,0.00010244099757983349,0.19098758697509766,True
1786,295,0.1071428571428571,0.00010221300181001425,0.1908273696899414,False
1787,82,0.0071428571428571175,9.697799760033377e-05,0.1909341812133789,True
1788,211,0.0,9.80240001808852e-05,0.19094181060791016,True
1789,232,0.0071428571428571175,9.954900087905116e-05,0.1909341812133789,True
1790,5,0.0071428571428571175,9.825800225371495e-05,0.1909341812133789,True
1791,44,0.0,9.667400081525557e-05,0.19094181060791016,True
1792,139,0.0,0.00010752700109151192,0.19094181060791016,True
1793,57,0.0,0.00018882599761127494,0.19094181060791016,True
1794,1,0.0,0.0001010490013868548,0.1910257339477539,True
1795,290,0.0071428571428571175,9.633800073061138e-05,0.1909341812133789,True
1796,25,0.0071428571428571175,9.712499740999192e-05,0.1909341812133789,True
1797,158,0.02857142857142858,0.00011521899796207435,0.19091129302978516,True
1798,5,0.0,9.973899796023034e-05,0.19094181060791016,True
1799,82,0.0,9.614200098440051e-05,0.19094181060791016,True
1800,159,0.0,9.581899939803407e-05,0.19094181060791016,True
1801,1,0.0,0.00010205499711446464,0.1910257339477539,True
1802,125,0.0071428571428571175,9.862300066743046e-05,0.1909341812133789,True
1803,10,0.0071428571428571175,9.615100134396926e-05,0.1909341812133789,True
1804,57,0.0071428571428571175,9.721400056150742e-05,0.1909341812133789,True
1805,1,0.0,0.00010464099977980368,0.1910257339477539,True
1806,10,0.0,0.00010000900147133507,0.19098758697509766,True
1807,10,0.0071428571428571175,0.00010355300037190318,0.1909341812133789,True
1808,139,0.0071428571428571175,9.780400068848394e-05,0.1909341812133789,True
1809,10,0.0,9.797800157684833e-05,0.19094181060791016,True
1810,10,0.0,9.74689974100329e-05,0.19094181060791016,True
1811,82,0.0,9.572699855198152e-05,0.19094181060791016,True
1812,44,0.0071428571428571175,9.659599891165271e-05,0.1909341812133789,True
1813,82,0.0071428571428571175,0.00011441000242484733,0.1909341812133789,True
1814,17,0.0,9.850000060396269e-05,0.19094181060791016,True
1815,10,0.0,0.00011489399912534282,0.19098758697509766,True
1816,46,0.021428571428571463,9.999200119636953e-05,0.1909189224243164,True
1817,35,0.0,9.664399840403348e-05,0.19094181060791016,True
1818,57,0.0,9.45370011322666e-05,0.19094181060791016,True
1819,290,0.0,9.59899989538826e-05,0.19094181060791016,True
1820,1,0.0071428571428571175,0.00010695899982238188,0.19101810455322266,True
1821,17,0.0071428571428571175,9.818100079428405e-05,0.1909341812133789,True
1822,51,0.0,9.602900172467344e-05,0.19094181060791016,True
1823,109,0.0,9.543200212647207e-05,0.19094181060791016,True
1824,1,0.0,0.00010138899961020797,0.1910257339477539,True
1825,17,0.0,9.691000013845041e-05,0.19094181060791016,True
1826,10,0.0,9.643900193623267e-05,0.19094181060791016,True
1827,70,0.0,9.512600081507117e-05,0.19094181060791016,True
1828,159,0.0,0.00011377900227671489,0.19094181060791016,True
1829,249,0.0,9.759000022313558e-05,0.19094181060791016,True
1830,35,0.0,9.739699817146175e-05,0.19094181060791016,True
1831,5,0.0071428571428571175,9.91830020211637e-05,0.1909341812133789,True
1832,272,0.0071428571428571175,0.00010863200077437796,0.1909341812133789,True
1833,102,0.0357142857142857,9.995800064643845e-05,0.1909036636352539,True
1834,100,0.0,9.657400005380623e-05,0.19094181060791016,True
1835,82,0.0,9.565599975758232e-05,0.19094181060791016,True
1836,98,0.0,9.476599734625779e-05,0.19094181060791016,True
1837,232,0.0,0.00010431000191601925,0.19094181060791016,True
1838,46,0.0,9.557199882692657e-05,0.19094181060791016,True
1839,159,0.0,9.563499770592898e-05,0.19094181060791016,True
1840,145,0.021428571428571463,9.659400166128762e-05,0.1909189224243164,True
1841,233,0.021428571428571463,9.735899948282167e-05,0.1909189224243164,True
1842,5,0.0,0.00014326900054584257,0.19094181060791016,True
1843,17,0.0,0.00011363299927324988,0.19094181060791016,True
1844,100,0.0,9.743899863678962e-05,0.19094181060791016,True
1845,273,0.0,9.564699939801358e-05,0.19094181060791016,True
1846,17,0.0,9.768800009624101e-05,0.19094181060791016,True
1847,49,0.021428571428571463,9.735500134411268e-05,0.1909189224243164,True
1848,10,0.0,9.97970018943306e-05,0.19098758697509766,True
1849,46,0.0,9.534999844618142e-05,0.19094181060791016,True
1850,102,0.0,9.50679968809709e-05,0.19094181060791016,True
1851,57,0.0,9.665800098446198e-05,0.19094181060791016,True
1852,1,0.0,0.0001021349999064114,0.1910257339477539,True
1853,233,0.02857142857142858,9.737899745232426e-05,0.19091129302978516,True
1854,46,0.0,9.534099808661267e-05,0.19094181060791016,True
1855,290,0.0,9.689700164017268e-05,0.19094181060791016,True
1856,125,0.0,9.58439995883964e-05,0.19094181060791016,True
