Test Index,Train Index,Score,Computing Time (s),Space Usage (MB),Same Class
0,13,13.187032186762831,0.00013750200014328584,0.17247867584228516,True
1,118,1.9570408804857984,0.0001471979994676076,0.1724557876586914,True
2,271,4.619339571627564,0.00013363600010052323,0.1724863052368164,True
3,65,4.836142402965682,0.00013179300003685057,0.1724863052368164,True
4,226,4.55203912398407,0.00013500600107363425,0.1725625991821289,True
5,269,3.9524887912867297,0.00014527000166708604,0.1724100112915039,True
6,144,3.9231482197103356,0.0001432999997632578,0.1725320816040039,True
7,166,2.5159898588772487,0.00014034699779585935,0.17246341705322266,True
8,98,2.8198855937421983,0.0001446209971618373,0.1725473403930664,True
9,33,8.37697359371857,0.00013924500308348797,0.17247867584228516,True
10,129,2.103602330075211,0.00014061200272408314,0.17247867584228516,True
11,158,4.016699115334132,0.00014372000077855773,0.1725168228149414,True
12,106,5.338829415380271,0.00013953599773230962,0.17246341705322266,True
13,151,1.967415044277598,0.0001362189977953676,0.17241764068603516,True
14,247,3.0215447206558705,0.00014063300113775767,0.17252445220947266,True
15,1,3.0172988876599254,0.00013472999853547662,0.1723947525024414,True
16,135,1.4182296304024289,0.00013790100274491124,0.17240238189697266,True
17,166,2.0187818853318373,0.00014871900202706456,0.1724405288696289,True
18,76,3.471579722771181,0.00012896800035377964,0.17229557037353516,True
19,76,2.5985075555900496,0.00014548100079991855,0.17231082916259766,True
20,98,1.875915931407857,0.00013899300029152073,0.1724252700805664,True
21,151,1.9947939543525008,0.0001454070006730035,0.17252445220947266,True
22,24,2.0438413866524194,0.00013309399946592748,0.1723337173461914,True
23,166,1.4818721136284074,0.00012809100007871166,0.17234134674072266,True
24,151,1.7971583918947385,0.00013616100113722496,0.17241764068603516,True
25,144,30.000720344070324,0.00014799299970036373,0.17260074615478516,True
26,187,2.7582493020071484,0.0001499600002716761,0.1725931167602539,True
27,13,7.258644453839599,0.00014797499898122624,0.17247867584228516,True
28,282,2.0346274597664973,0.0001430749980499968,0.1724710464477539,True
29,24,2.2245379023226475,0.00014272900079959072,0.1724100112915039,True
30,161,3.4936486944618794,0.0001577970033395104,0.1725320816040039,True
31,242,3.330422524236953,0.00015049900321173482,0.1723947525024414,True
32,242,1.8261031225890323,0.00014357600230141543,0.1723947525024414,True
33,132,2.839514490465086,0.0001369440033158753,0.1724863052368164,True
34,66,2.6483929619886055,0.00013799799853586592,0.17249393463134766,True
35,242,3.241889441737498,0.00013930000204709359,0.17237186431884766,True
36,33,3.468154752141664,0.00015071700181579217,0.1724405288696289,True
37,33,6.2443102335748275,0.00013567099813371897,0.17243289947509766,True
38,82,1.7446970466227951,0.00013544499961426482,0.1724100112915039,True
39,246,3.022960268152953,0.00017573299919604324,0.17255496978759766,True
40,106,11.177823952482305,0.00013955000031273812,0.17249393463134766,True
41,24,1.8979493833815457,0.00014348100012284704,0.17243289947509766,True
42,255,3.6961055850711433,0.00017822299923864193,0.1725320816040039,True
43,151,3.0965817501694466,0.00013504699745681137,0.1723947525024414,True
44,75,4.452861943556527,0.00013830500029143877,0.17246341705322266,True
45,24,1.5404621264997285,0.00013581999883172102,0.17240238189697266,True
46,145,11.432932613243644,0.00015357899974333122,0.17249393463134766,True
47,33,18.153103632162686,0.00014890900274622254,0.1725473403930664,True
48,282,2.8427629965585943,0.00013492500147549435,0.1724100112915039,True
49,243,3.4298936034367578,0.0001442240027245134,0.1725473403930664,True
50,226,1.801827120282586,0.000127238999994006,0.17231082916259766,True
51,38,0.8074007330570102,0.00012960700041730888,0.1723337173461914,True
52,247,2.78368126579925,0.00015047299893922172,0.17243289947509766,True
53,24,2.0858245186771955,0.00015023200103314593,0.1723947525024414,True
54,98,5.650229366779043,0.0001420619992131833,0.17258548736572266,True
55,127,5.216818765463245,0.0001628280006116256,0.17241764068603516,True
56,143,3.151492404697334,0.0001531229972897563,0.1723947525024414,True
57,242,2.051948351631356,0.000133068002469372,0.1723489761352539,True
58,66,3.458054111326606,0.00014464699779637158,0.17252445220947266,True
59,149,3.333691541207676,0.00014714400094817393,0.1724100112915039,True
60,242,1.8255441312148892,0.0001410060031048488,0.17237186431884766,True
61,129,1.7696444734114432,0.0001512059970991686,0.17237186431884766,True
62,125,4.190613060102442,0.00016171899915207177,0.1725168228149414,True
63,24,1.7797660647219096,0.00014208799984771758,0.17240238189697266,True
64,149,2.026398991971348,0.00014651500168838538,0.1723489761352539,True
65,271,3.3426415462703485,0.00014951300181564875,0.1725168228149414,True
66,435,34.44483889624274,0.0001423130015609786,0.1725931167602539,False
67,226,4.245398797533481,0.00015303699910873547,0.17244815826416016,True
68,125,5.6327341694821715,0.00017737099915393628,0.1724863052368164,True
69,151,1.5097989204719282,0.00013344599938136525,0.1724100112915039,True
70,169,2.1963507825998927,0.0001343730000371579,0.1724252700805664,True
71,75,4.806109418716516,0.00013500400018529035,0.17241764068603516,True
72,151,2.655230601327661,0.000149965999298729,0.17241764068603516,True
73,144,2.225791214703777,0.00013854999997420236,0.1725168228149414,True
74,151,1.874602323088519,0.00013486800162354484,0.1723947525024414,True
75,143,2.3674417050875833,0.0001372480001009535,0.1724405288696289,True
76,66,3.3486366300916077,0.0001410589975421317,0.1725168228149414,True
77,98,8.151982725881762,0.00014048299999558367,0.17252445220947266,True
78,151,2.303914191185258,0.00013610600217361934,0.17241764068603516,True
79,226,3.863377335341536,0.0001486729997850489,0.17250919342041016,True
80,82,4.955519248764601,0.000136579001264181,0.17241764068603516,True
81,268,2.6735825301113496,0.00013264299923321232,0.1723489761352539,True
82,24,4.361277890116351,0.00014666900096926838,0.1724863052368164,True
83,166,2.7138497587993973,0.00013659199976245873,0.17244815826416016,True
84,144,10.279240165175569,0.0001548770014778711,0.1726388931274414,True
85,226,3.263337993300029,0.00013838399900123477,0.1724710464477539,True
86,51,11.758867212792191,0.0001513540009909775,0.1724252700805664,True
87,158,2.973220654353277,0.00013974100147606805,0.1724252700805664,True
88,149,0.699772223081535,0.00012837300164392218,0.17231082916259766,True
89,144,5.211113903668542,0.00015744600023026578,0.1725473403930664,True
90,8,5.014631738857345,0.00014684499910799786,0.17250919342041016,True
91,38,2.732868749499073,0.0001365530006296467,0.1723947525024414,True
92,246,1.3900078320400295,0.00015327000073739327,0.1723947525024414,True
93,158,18.144132210920077,0.00014432399984798394,0.17263126373291016,True
94,242,3.004041827033471,0.00014333999934024177,0.1724252700805664,True
95,38,3.75787969057816,0.00013815399870509282,0.1724252700805664,True
96,282,2.534878492293566,0.00013969399878988042,0.17252445220947266,True
97,158,3.7782792007528716,0.0001404370013915468,0.17252445220947266,True
98,274,2.2550103295709443,0.00015324799824156798,0.17238712310791016,True
99,151,2.032988415573355,0.00015163099669734947,0.17241764068603516,True
100,118,3.8770786425737063,0.0001380199973937124,0.17243289947509766,True
101,269,2.8025902134555705,0.00013209000098868273,0.1723337173461914,True
102,226,2.0904719441017914,0.00012666600014199503,0.1723031997680664,True
103,245,5.13468813995888,0.00015179600086412393,0.17249393463134766,True
104,271,5.06537022385576,0.0001408929965691641,0.1724863052368164,True
105,166,1.9090054561581575,0.00014059599925531074,0.17231082916259766,True
106,196,3.6505417663744257,0.00013407000005827285,0.1723947525024414,True
107,254,14.308238411122321,0.00015498499851673841,0.1726388931274414,True
108,144,3.4544706571497583,0.0001556530005473178,0.1725473403930664,True
109,282,2.142556808731432,0.00014507200103253126,0.1724863052368164,True
110,75,2.4690262063396107,0.00015956099741742946,0.17234134674072266,True
111,106,9.856092673206751,0.0001583359990036115,0.17257022857666016,True
112,161,1.6705687335110657,0.0001964779985428322,0.1724710464477539,True
113,124,3.299819149353466,0.00015465799879166298,0.1724405288696289,True
114,106,7.6396165146861374,0.00015953800175338984,0.17250919342041016,True
115,82,3.646818826431344,0.00014816600014455616,0.1724100112915039,True
116,118,2.0630163907031163,0.00015111700122361071,0.17249393463134766,True
117,166,2.055869658149262,0.00013693700020667166,0.1724557876586914,True
118,166,1.1662983653612737,0.00013310700160218403,0.17238712310791016,True
119,75,3.2210556687855956,0.00013205000141169876,0.17232608795166016,True
120,118,2.7958056466166066,0.0001373230006720405,0.17244815826416016,True
121,208,3.4914309562674184,0.00015713699758634903,0.17247867584228516,True
122,151,2.3156194625624327,0.0001356249995296821,0.1724252700805664,True
123,38,1.7898291584923371,0.00013829300223733298,0.1724710464477539,True
124,82,4.605794040667024,0.0001433019970136229,0.1725015640258789,True
125,82,4.87655069329272,0.00013556100020650774,0.17240238189697266,True
126,271,3.579277559797353,0.00013488900003721938,0.17243289947509766,True
127,1,5.60452693427426,0.00014873300096951425,0.1725168228149414,True
128,133,1.831821225677144,0.00014769400149816647,0.17235660552978516,True
129,24,3.125025583851885,0.00014987500253482722,0.1725015640258789,True
130,246,2.645682401727595,0.00013986799967824481,0.1725473403930664,True
131,133,1.9596475974365926,0.0001311979976890143,0.17238712310791016,True
132,245,2.5497228461448205,0.00013821600077790208,0.1723642349243164,True
133,118,2.8940312231955803,0.00014466700304183178,0.17250919342041016,True
134,468,27.535665861845516,0.00013962400043965317,0.1725168228149414,False
135,145,10.219082073928623,0.00013615699936053716,0.1724710464477539,True
136,255,2.786553334065884,0.00014834000103292055,0.17252445220947266,True
137,166,1.1513093249694089,0.00013900100020691752,0.1723489761352539,True
138,196,2.812319883560935,0.0001440050000383053,0.17247867584228516,True
139,135,1.696759424602992,0.0001778919977368787,0.1723947525024414,True
140,273,3.7408267929129257,0.00017588899936527014,0.17243289947509766,True
141,149,3.4608990566614697,0.00015630499910912476,0.1724710464477539,True
142,10,2.00697152228272,0.00014560700219590217,0.1724710464477539,True
143,66,2.036308678968722,0.0002169029976357706,0.17237186431884766,True
144,226,3.4186054948224602,0.00013633100024890155,0.17241764068603516,True
145,166,2.731388026082172,0.00014347099931910634,0.1725015640258789,True
146,65,4.964062519632241,0.00014529699910781346,0.1725168228149414,True
147,215,3.6240302647252327,0.000136733000545064,0.17247867584228516,True
148,24,4.07577096753395,0.00015364000137196854,0.17249393463134766,True
149,144,3.7429058036071403,0.00017696700160740875,0.1725320816040039,True
150,226,4.1727123645834245,0.00014155399912851863,0.1724252700805664,True
151,106,3.1054320691328945,0.00014359099805005826,0.17246341705322266,True
152,151,2.008768329602248,0.00014238100266084075,0.17238712310791016,True
153,151,4.825839061351802,0.00014611900041927584,0.1725625991821289,True
154,133,1.2201262373650936,0.00014509200264001265,0.17247867584228516,True
155,143,2.076398525979021,0.0001413530007994268,0.1724710464477539,True
156,282,2.2727420168611405,0.0001409069991495926,0.1724252700805664,True
157,247,2.1074352823803584,0.00014351600111695006,0.17244815826416016,True
158,242,3.3742895438906744,0.0001410709992342163,0.1723947525024414,True
159,82,5.299776804894887,0.00015147800149861723,0.17237186431884766,True
160,151,1.9324461642139734,0.00013458199828164652,0.17243289947509766,True
161,92,4.694715401564879,0.00015807800082257017,0.1725015640258789,True
162,158,2.553267538651401,0.00013343200043891557,0.17241764068603516,True
163,51,3.7836486873884034,0.00014325200027087703,0.1724863052368164,True
164,242,1.0515723425297976,0.00014556200039805844,0.17232608795166016,True
165,82,2.493010485023388,0.00014623099923483096,0.17250919342041016,True
166,106,17.292928828525078,0.00016844699712237343,0.17255496978759766,True
167,24,1.1183643079368557,0.0001781920000212267,0.17243289947509766,True
168,129,2.3078781858252357,0.0001705249997030478,0.1725168228149414,True
169,166,2.1779311283705973,0.00029057800202281214,0.17240238189697266,True
170,24,4.546827975350338,0.00016867000158526935,0.1724557876586914,True
171,247,2.4200021558017113,0.00018102200192515738,0.17255496978759766,True
172,135,0.4986059119688477,0.00019380400044610724,0.17237186431884766,True
173,196,3.71968922610234,0.0001429270014341455,0.1724252700805664,True
174,274,1.2261626752632266,0.00014839299910818227,0.17243289947509766,True
175,98,5.497162277707229,0.00016962800145847723,0.1725931167602539,True
176,24,7.4719527613003205,0.0001794240015442483,0.1726541519165039,True
177,158,8.318102234839802,0.00016079499982879497,0.17255496978759766,True
178,356,73.63990467103987,0.00015195900050457567,0.1725625991821289,False
179,130,3.428664013292975,0.00013837000005878508,0.17235660552978516,True
180,118,0.8272205753532779,0.0001488800007791724,0.17237186431884766,True
181,135,1.2852165734086838,0.0001686690011410974,0.17234134674072266,True
182,273,3.9243483890342983,0.00016077599866548553,0.17255496978759766,True
183,127,2.0881055710702467,0.00014164900130708702,0.1723642349243164,True
184,242,2.4401767920174655,0.00014427000132855028,0.1724405288696289,True
185,273,2.145000111968777,0.00019046699890168384,0.1725015640258789,True
186,271,2.5214954602975093,0.0001432370008842554,0.1724405288696289,True
187,92,3.172175319037591,0.00015296800120268017,0.1724557876586914,True
188,143,1.9266482314127344,0.00013970700092613697,0.17241764068603516,True
189,226,2.757781364640063,0.00014103599824011326,0.1723947525024414,True
190,158,3.026819019833934,0.00017687800209387206,0.17238712310791016,True
191,242,2.71751686646821,0.00019052600327995606,0.1724863052368164,True
192,125,2.9491672274748817,0.00018284099860466085,0.1724710464477539,True
193,132,2.3726998846468144,0.00014226999701349996,0.17240238189697266,True
194,118,2.7076114822260937,0.0001338620022579562,0.17238712310791016,True
195,82,11.692409776833435,0.00014731400005985051,0.1724863052368164,True
196,127,2.5723595201589604,0.00013348300126381218,0.1724252700805664,True
197,82,1.4525352400198699,0.00013251600103103556,0.17235660552978516,True
198,273,1.8622965179426028,0.0001393710008414928,0.17249393463134766,True
199,82,2.7847205179871932,0.00014208300126483664,0.1723794937133789,True
200,66,4.1197683276452475,0.0001587149999977555,0.17240238189697266,True
201,242,2.695198461344771,0.0001335239976469893,0.1724100112915039,True
202,274,2.1899431702599994,0.00015954799891915172,0.17238712310791016,True
203,274,4.28833790055402,0.00014480800018645823,0.17257022857666016,True
204,95,4.234748027399559,0.0001522210004623048,0.17250919342041016,True
205,135,1.7625146500497617,0.00017994600057136267,0.17243289947509766,True
206,271,2.733249599925981,0.00013973100067232735,0.17246341705322266,True
207,226,3.482365908727622,0.00014054400162422098,0.1723794937133789,True
208,82,2.7773514792420704,0.00013357900024857372,0.17235660552978516,True
209,130,3.432813705112681,0.00014535599984810688,0.17238712310791016,True
210,13,29.808248436462062,0.00014904099953128025,0.1725625991821289,True
211,24,2.1173089814719943,0.00013550499716075137,0.17232608795166016,True
212,143,2.727747212015425,0.0001437760001863353,0.17244815826416016,True
213,98,5.409536826157364,0.00014028399891685694,0.17250919342041016,True
214,243,4.288970974469028,0.00013929800115874968,0.1725015640258789,True
215,76,1.2928771766118996,0.00014736499724676833,0.1723642349243164,True
216,271,2.941889934965816,0.00013609799862024374,0.17234134674072266,True
217,151,5.414198522451246,0.00014282299889600836,0.17244815826416016,True
218,33,7.700953010458649,0.00016834800044307485,0.1724710464477539,True
219,10,1.7874461942271798,0.00013830000170855783,0.1723794937133789,True
220,273,2.489025110929977,0.00014474300041911192,0.17249393463134766,True
221,254,10.000202946528326,0.0001473299998906441,0.1725320816040039,True
222,274,10.062122497700166,0.00016627999866614118,0.1724710464477539,True
223,187,4.843381932273841,0.0001785080021363683,0.1725778579711914,True
224,133,2.0046019763660383,0.00014458599980571307,0.1724710464477539,True
225,124,6.0153107502496,0.00014772599752177484,0.17246341705322266,True
226,274,2.348637892874462,0.00014964000001782551,0.1724710464477539,True
227,144,20.68146734875541,0.00017969699911191128,0.17267704010009766,True
228,274,1.940983108133338,0.00015148599777603522,0.17238712310791016,True
229,255,2.513512185518276,0.00014182400263962336,0.1724405288696289,True
230,82,1.7980841764546245,0.00014720199760631658,0.1725015640258789,True
231,133,2.097854593941301,0.00014620200090575963,0.1724252700805664,True
232,243,2.374233542349689,0.0001480509999964852,0.17244815826416016,True
233,242,2.8788297041893642,0.0001390430006722454,0.17240238189697266,True
234,273,1.6547980115045042,0.00013345000115805306,0.17234134674072266,True
235,98,2.5240111546878348,0.0001949420002347324,0.1724557876586914,True
236,144,3.947166414573403,0.00014258200098993257,0.1725625991821289,True
237,271,3.0369264861300307,0.00014806800027145073,0.1724710464477539,True
238,82,2.8662198247341073,0.00018801199985318817,0.1724405288696289,True
239,132,3.5283872292456393,0.00013668400060851127,0.1724405288696289,True
240,1,6.1998665450463735,0.00015254599929903634,0.1725778579711914,True
241,65,1.2466812598738672,0.00013008200039621443,0.1723184585571289,True
242,282,1.2833982895818905,0.0001516129996161908,0.17240238189697266,True
243,82,2.275927779456136,0.0001622180025151465,0.17244815826416016,True
244,92,5.393764248090902,0.00014183800158207305,0.17243289947509766,True
245,75,1.5509122136381,0.00012797099770978093,0.1723184585571289,True
246,66,2.7939480361589673,0.00013794199912808836,0.1724863052368164,True
247,242,1.6045660612628,0.00014453499898081645,0.1724100112915039,True
248,246,2.2829250611140353,0.00014072799967834726,0.17253971099853516,True
249,24,2.4119769043189563,0.00013513399971998297,0.17240238189697266,True
250,66,3.898483758221363,0.0001444020017515868,0.17247867584228516,True
251,85,4.226620397528502,0.0001431460004823748,0.17246341705322266,True
252,92,7.92331390208498,0.00014267300139181316,0.1725168228149414,True
253,282,3.4799831620321875,0.00014414199904422276,0.1725320816040039,True
254,226,1.99196393836047,0.0001412919991707895,0.1724557876586914,True
255,468,22.365296987880384,0.0001508939967607148,0.1725625991821289,False
256,38,3.2729343464696425,0.0001354650012217462,0.17241764068603516,True
257,76,6.876506642625584,0.0001498970013926737,0.1724863052368164,True
258,33,8.202588186926384,0.00014095700316829607,0.17243289947509766,True
259,243,5.327547390808565,0.00016610699822194874,0.1724710464477539,True
260,118,2.4508697685412963,0.00014404399917111732,0.1724252700805664,True
261,24,1.4726872029138613,0.00014555799862137064,0.1723337173461914,True
262,282,2.662227038979876,0.0001463289991079364,0.1725015640258789,True
263,13,10.97383504656412,0.00015322100080084056,0.17249393463134766,True
264,82,2.81870904052027,0.00014728500173077919,0.1724863052368164,True
265,24,3.2657841647388346,0.00015920800069579855,0.1725168228149414,True
266,82,3.644188739142575,0.00014563099830411375,0.17241764068603516,True
267,135,1.8524866353361351,0.0001395090002915822,0.1724100112915039,True
268,150,6.171464910441558,0.000145084999530809,0.17241764068603516,True
269,1,19.004386224011373,0.0001529260007373523,0.1726236343383789,True
270,24,6.275875462372863,0.00014127499889582396,0.1724710464477539,True
271,247,5.370547511243727,0.00014395600010175258,0.1726083755493164,True
272,98,2.877676264462878,0.00020663599934778176,0.17247867584228516,True
273,75,2.8729619504686723,0.00013372700050240383,0.1723337173461914,True
274,149,3.5779610312629258,0.00013761700029135682,0.17244815826416016,True
275,129,2.0527859461965012,0.00014675499915028922,0.17243289947509766,True
276,118,3.0699134555465046,0.0001353899970126804,0.17244815826416016,True
277,10,3.2252839486070393,0.00013473400031216443,0.17241764068603516,True
278,247,2.2227052178377535,0.00013567800124292262,0.1724710464477539,True
279,1,4.110170448723623,0.00014012400060892105,0.17252445220947266,True
280,226,2.6648990066374054,0.00014170699796522968,0.1725320816040039,True
281,242,1.5972653101222323,0.00013496599785867147,0.17237186431884766,True
282,269,3.2134058482351118,0.00013904599836678244,0.1724405288696289,True
283,106,6.082905721273729,0.00014422899766941555,0.17253971099853516,True
284,125,3.1474272457082586,0.00013738800043938681,0.17246341705322266,True
285,273,1.3865146129078,0.00013764600225840695,0.1724100112915039,True
286,133,0.9228446288999633,0.00013162699906388298,0.17237186431884766,True
287,166,1.5393043625290366,0.00014150800052448176,0.1724405288696289,True
288,51,10.012845753567303,0.00015467800039914437,0.1725778579711914,True
289,82,1.6452606111469625,0.00013497499821824022,0.17241764068603516,True
290,132,1.9351805173295002,0.0001409010001225397,0.1724710464477539,True
291,271,4.136381391454199,0.00014011999883223325,0.17250919342041016,True
292,64,2.1486988397708036,0.00014898299923515879,0.1723947525024414,True
293,65,3.5558162053608653,0.00013692699940293096,0.1724557876586914,True
294,118,2.3705175900643454,0.00014734300202690065,0.1724100112915039,True
295,226,2.5121747447365625,0.00013170999955036677,0.17237186431884766,True
296,242,1.9707123222110132,0.00013455999942380004,0.17240238189697266,True
297,24,3.223717919113471,0.0001382650007144548,0.17247867584228516,True
298,269,4.3903330865150405,0.0001407290001225192,0.17244815826416016,True
299,76,2.558756505714944,0.00015234899910865352,0.1723184585571289,True
300,274,2.433864195050142,0.0001392539998050779,0.17246341705322266,True
301,151,1.4474191291247256,0.0001349809972452931,0.17241764068603516,True
302,106,23.549144697642753,0.00015164800061029382,0.1726388931274414,True
303,151,2.015082797744524,0.00014736499724676833,0.17246341705322266,True
304,271,1.252255228277401,0.00013080799908493645,0.1723642349243164,True
305,247,1.1702112646855052,0.0001352219987893477,0.17243289947509766,True
306,98,9.198427147742224,0.00014240800010156818,0.17258548736572266,True
307,24,4.408060335686623,0.00013802299872622825,0.17247867584228516,True
308,82,1.6719309180519983,0.00013366499842959456,0.17235660552978516,True
309,245,3.3376378617348568,0.0001623839998501353,0.1725320816040039,True
310,64,2.8082931568893814,0.0001614360007806681,0.17237186431884766,True
311,161,3.3009284279821305,0.00017517200103611685,0.17244815826416016,True
312,82,4.231910579021574,0.00014683300105389208,0.1723947525024414,True
313,98,3.803379165674911,0.00013862699779565446,0.1724405288696289,True
314,135,4.086493163548657,0.00014053900304134004,0.17250919342041016,True
315,166,2.6396319444771903,0.000134828998852754,0.1724252700805664,True
316,242,3.194817420237376,0.0003559930009942036,0.17238712310791016,True
317,151,1.5560647284166917,0.00014202300008037128,0.17246341705322266,True
318,149,3.5521515156442924,0.00013488799959304743,0.1724100112915039,True
319,98,1.9876518768326499,0.0001436769998690579,0.1725473403930664,True
320,13,15.228538302264433,0.00014277399895945564,0.1725320816040039,True
321,144,1.9332504043688787,0.000131053999211872,0.17235660552978516,True
322,169,1.6529712712027844,0.00014706300135003403,0.1724100112915039,True
323,33,8.3313136989584,0.00014721199841005728,0.17249393463134766,True
324,65,3.2702832060786604,0.000214668001717655,0.17244815826416016,True
325,82,2.393151194072808,0.00015398699906654656,0.1723947525024414,True
326,76,3.0259933436699935,0.00013201199908507988,0.1723489761352539,True
327,242,2.8623931954100477,0.00014274600107455626,0.1725320816040039,True
328,245,5.6866133263545064,0.0001378599990857765,0.17249393463134766,True
329,247,9.078071739863839,0.00015884799722698517,0.1725320816040039,True
330,151,2.194584966872346,0.00014924000061000697,0.17241764068603516,True
331,243,2.2136318253612735,0.00014789399938308634,0.1724557876586914,True
332,166,1.5628323401771278,0.0001319619987043552,0.1723337173461914,True
333,274,3.3606331967566736,0.00013435400251182728,0.1724405288696289,True
334,98,3.265259640106626,0.00014370599819812924,0.1726083755493164,True
335,118,2.750096979656528,0.0001330030027020257,0.17240238189697266,True
336,85,4.606052753534295,0.00016005499855964445,0.1725778579711914,True
337,196,2.5193341525957575,0.0001376289983454626,0.17246341705322266,True
338,242,2.7856213638424174,0.000132764002046315,0.17237186431884766,True
339,226,2.7541217605817345,0.0001484909989812877,0.17240238189697266,True
340,132,2.760880767834309,0.00014654899860033765,0.17238712310791016,True
341,10,3.101671148301157,0.00018562900004326366,0.1724405288696289,True
342,144,26.58852208425099,0.00014688299779663794,0.17263126373291016,True
343,92,8.639369052571105,0.000132048997329548,0.1723794937133789,True
344,282,3.848141854948823,0.00014277000082074665,0.1725473403930664,True
345,64,2.4751723057590116,0.00012951499957125634,0.17234134674072266,True
346,243,2.9583335241305972,0.00015796200023032725,0.17253971099853516,True
347,76,4.277030951063416,0.00014574600209016353,0.17244815826416016,True
348,125,5.147981496260325,0.0001426920025551226,0.1725625991821289,True
349,247,2.1253898072756088,0.00015047199849504977,0.1725015640258789,True
350,65,7.726376218116808,0.00013643300189869478,0.17249393463134766,True
351,82,4.265630961658952,0.0001867339997261297,0.1724252700805664,True
352,273,3.142386748138585,0.0001380949979647994,0.17246341705322266,True
353,38,1.9045605078912595,0.00013573300020652823,0.17240238189697266,True
354,145,8.974900336024604,0.00014178700075717643,0.1725625991821289,True
355,132,2.7972567541030706,0.00013525499889510684,0.17246341705322266,True
356,129,3.0250401152761297,0.00014755400115973316,0.17253971099853516,True
357,486,11.935088289756271,0.0001400580003974028,0.1725320816040039,False
358,76,3.2177553990091297,0.00013785500050289556,0.17232608795166016,True
359,435,31.495365305171724,0.0001643350005906541,0.17266178131103516,False
360,118,2.0758997807419948,0.00013364400001592003,0.17237186431884766,True
361,118,2.7877872779466113,0.00014365999959409237,0.17243289947509766,True
362,187,6.224374200770119,0.00015979900126694702,0.17253971099853516,True
363,242,3.0854028324969867,0.0001930840007844381,0.17241764068603516,True
364,144,8.786652201773242,0.00014156399993225932,0.1725778579711914,True
365,255,2.5963401310522563,0.00014779500270378776,0.17246341705322266,True
366,273,2.2247677558984873,0.00015731199891888537,0.17244815826416016,True
367,124,2.8147288343797268,0.00013716400280827656,0.1724710464477539,True
368,106,17.1275587452227,0.00014996499885455705,0.17267704010009766,True
369,273,3.364747996628812,0.00014247699800762348,0.17255496978759766,True
370,245,2.6040502512609334,0.00014077499872655608,0.1724405288696289,True
371,144,10.100783748278971,0.00014979100160417147,0.1726236343383789,True
372,161,2.8555685084697626,0.00013553700046031736,0.1724252700805664,True
373,242,3.273761283556961,0.00013698299881070852,0.1723947525024414,True
374,271,2.5086964177839217,0.00015441000141436234,0.1724863052368164,True
375,161,2.195056260121528,0.00014355699750012718,0.1725320816040039,True
376,132,2.0063531363259743,0.00013149299775250256,0.1723642349243164,True
377,144,6.428607745194837,0.00013798600048176013,0.17249393463134766,True
378,135,1.5126704581950425,0.00014396400001714937,0.1723794937133789,True
379,150,4.2809572535303175,0.00014037100118002854,0.17249393463134766,True
380,196,2.5545867233885438,0.00015072099995450117,0.1724405288696289,True
381,82,2.46471747442791,0.0001337850007985253,0.17240238189697266,True
382,129,2.477094943582221,0.00013862700143363327,0.1724100112915039,True
383,161,3.506561687030511,0.00013972500164527446,0.1725168228149414,True
384,106,3.3480091348103493,0.00013490700075635687,0.1724252700805664,True
385,1,5.834861918182665,0.00015366600200650282,0.1725473403930664,True
386,98,2.0826002802428927,0.00015137700029299594,0.1724405288696289,True
387,226,2.2806229203644377,0.00013480599955073558,0.17240238189697266,True
388,24,1.8465837920587995,0.00013818500156048685,0.17241764068603516,True
389,169,1.5783169939000716,0.00013198699889471754,0.1723642349243164,True
390,242,2.5497798102915925,0.00014807700063101947,0.1725015640258789,True
391,144,3.941857317596403,0.00013961700096842833,0.1725168228149414,True
392,247,2.283376940331828,0.00014282499978435226,0.17257022857666016,True
393,38,1.84279549575471,0.00013799600128550082,0.17240238189697266,True
394,151,2.1560429199629936,0.00013690600098925643,0.1724710464477539,True
395,268,1.6941128749002163,0.00012978599988855422,0.17234134674072266,True
396,132,1.9329793283680528,0.0001439890002075117,0.17250919342041016,True
397,95,27.832137407302035,0.0001417399980709888,0.1725168228149414,True
398,66,2.5543759712471372,0.00014048499724594876,0.1724710464477539,True
399,268,4.582802136526871,0.00015231500219670124,0.1725015640258789,True
400,282,2.0302976109557056,0.00014314500003820285,0.1725015640258789,True
401,144,6.502750170999345,0.00014164600361254998,0.1725320816040039,True
402,166,2.4754746525304356,0.0001438229992345441,0.17241764068603516,True
403,247,2.887700124077435,0.00014457400175160728,0.1725625991821289,True
404,273,2.771033127104091,0.00015033900126582012,0.1725625991821289,True
405,98,1.9319277959590557,0.00013744000170845538,0.1724710464477539,True
406,125,2.383900483730302,0.00013594400297733955,0.17241764068603516,True
407,65,3.210376016768767,0.00013269400005810894,0.17238712310791016,True
408,169,2.414559568490354,0.0001404409995302558,0.17246341705322266,True
409,98,5.086818627050436,0.00014663000183645636,0.17260074615478516,True
410,118,2.3768761721873353,0.0001324459990428295,0.1723794937133789,True
411,149,3.2578252351401997,0.00013507099720300175,0.17238712310791016,True
412,108,2.504263065449586,0.0001341679999313783,0.1723947525024414,True
413,169,2.1832472898617077,0.00013991499872645363,0.1724863052368164,True
414,151,3.9410569826475808,0.0001472389994887635,0.1724405288696289,True
415,118,2.5180050077394474,0.00013430300168693066,0.17241764068603516,True
416,150,5.38580874468969,0.00014800200005993247,0.17241764068603516,True
417,8,2.8207023605552983,0.00014578899936168455,0.1724863052368164,True
418,118,3.4931423453315675,0.000140050000482006,0.1724710464477539,True
419,151,2.2173313963768653,0.0001361739996355027,0.17247867584228516,True
420,247,3.315424539833079,0.00013860299804946408,0.1724863052368164,True
421,166,1.9755815443612146,0.00013875299919163808,0.1724557876586914,True
422,149,3.6712797843405798,0.00013106999904266559,0.1723489761352539,True
423,166,2.550214716262311,0.00013158599904272705,0.17235660552978516,True
424,166,2.136329675795365,0.00014542400094796903,0.17246341705322266,True
425,76,3.9457752162514246,0.0001323549986409489,0.1723642349243164,True
426,51,3.5437949501946027,0.00013941299766884185,0.1723642349243164,True
427,226,3.6051788892926293,0.00014377299885381944,0.1725015640258789,True
428,118,1.4641036052793353,0.00014952300261938944,0.1723947525024414,True
429,242,1.7162115463831664,0.00016392299949075095,0.1723947525024414,True
430,118,2.361633829630019,0.0001907559999381192,0.17244815826416016,True
431,216,3.5973371670341985,0.00014231899695005268,0.1724557876586914,True
432,158,1.8004679277620665,0.00013342100282898173,0.1723947525024414,True
433,243,6.302077979437473,0.00014179200297803618,0.1724863052368164,True
434,143,5.926506928839527,0.00014088600073591806,0.17247867584228516,True
435,24,3.4242271492271814,0.0001415250007994473,0.1724252700805664,True
436,124,3.5111551874811364,0.0001418979991285596,0.17247867584228516,True
437,38,2.009088692622091,0.0001544030019431375,0.1724100112915039,True
438,161,1.1922190756309532,0.0001445359994249884,0.17246341705322266,True
439,269,5.6780491701978235,0.0001325880002696067,0.17238712310791016,True
440,282,2.252848388618059,0.00013506800314644352,0.17241764068603516,True
441,151,1.8102417424029817,0.00016705999951227568,0.17243289947509766,True
442,274,4.432484845326166,0.00013800699889543466,0.1724863052368164,True
443,151,1.858520681860149,0.00013784900147584267,0.17244815826416016,True
444,242,3.1676850422507137,0.00013593199764727615,0.17244815826416016,True
445,226,2.191758306560127,0.00013701799980481155,0.17246341705322266,True
446,226,2.788506261708314,0.0001338219990429934,0.17232608795166016,True
447,271,2.759603050508983,0.00013876099910703488,0.1724557876586914,True
448,269,3.5117047311814567,0.00014095900041866116,0.17240238189697266,True
449,187,2.78851444533073,0.00013569300062954426,0.1724557876586914,True
450,255,3.5939708417876175,0.00013510799908544868,0.1724557876586914,True
451,143,1.3484390784866365,0.0001326730016444344,0.1723947525024414,True
452,8,4.34463927646719,0.00013592400136985816,0.17241764068603516,True
453,274,1.8479217442072253,0.00019937600154662505,0.1724405288696289,True
454,82,4.10027689932804,0.00019920400154660456,0.1724405288696289,True
455,245,2.5480309303613775,0.00016092400255729444,0.17249393463134766,True
456,118,3.0600745281139385,0.0001494230018579401,0.1723947525024414,True
457,76,3.1800172327420877,0.00013516800026991405,0.17243289947509766,True
458,98,2.2742757895168983,0.0001432069984730333,0.17241764068603516,True
459,243,2.44909710070314,0.0001406010014761705,0.1724252700805664,True
460,245,2.6334670287913684,0.00013848299931851216,0.1724405288696289,True
461,143,1.94656715213509,0.0001424369984306395,0.1724252700805664,True
462,75,6.306431096698642,0.0001658039982430637,0.17249393463134766,True
463,124,3.5049959065950835,0.00015638500190107152,0.17247867584228516,True
464,132,2.069497351421129,0.00013323700113687664,0.17238712310791016,True
465,226,2.801070176726351,0.0001353109983028844,0.17238712310791016,True
466,106,6.873299135251854,0.00014222699974197894,0.1725015640258789,True
467,124,1.5936235991660934,0.00013203799971961416,0.1723794937133789,True
468,66,2.331499694567036,0.0001366440010315273,0.1724405288696289,True
469,118,2.3270854038114557,0.00013327700071386062,0.1724100112915039,True
470,125,3.2988144625743336,0.00013445099830278195,0.1724100112915039,True
471,66,2.096128617124183,0.00014991599891800433,0.17246341705322266,True
472,242,2.9450060589287124,0.0001474800010328181,0.1723947525024414,True
473,125,6.758658712316395,0.0001397300002281554,0.1724863052368164,True
474,187,1.5029325676881402,0.00016432399934274144,0.17246341705322266,True
475,245,2.43060435088244,0.00013983200187794864,0.17250919342041016,True
476,75,2.8391078321924414,0.00014310800179373473,0.1724100112915039,True
477,64,2.0960527846958548,0.0001477410005463753,0.1724252700805664,True
478,144,3.6314141070964094,0.00013504600065061823,0.1724252700805664,True
479,150,3.357763464576412,0.00013231499906396493,0.1723794937133789,True
480,33,8.607376087175819,0.00013860300168744288,0.17249393463134766,True
481,125,7.9999844520761485,0.00018747500143945217,0.17253971099853516,True
482,151,9.327721514788037,0.0001430040028935764,0.17253971099853516,True
483,166,1.6660840084284712,0.00013598499936051667,0.17238712310791016,True
484,435,60.231742229974905,0.00013782599853584543,0.1724557876586914,False
485,208,2.723971080490584,0.00013720599963562563,0.1724405288696289,True
486,125,5.691924748447592,0.00014248400111682713,0.1725168228149414,True
487,273,2.3946937431928155,0.00016243100253632292,0.1724557876586914,True
488,64,4.0044744511155015,0.00015165200238698162,0.17240238189697266,True
489,38,1.636117458641809,0.0001313639986619819,0.1723642349243164,True
490,246,3.0730077645867966,0.00013707900143344887,0.1724557876586914,True
491,66,1.7773161004587985,0.00013105900143273175,0.17237186431884766,True
492,483,8.767241942400299,0.0001444689987692982,0.1725625991821289,False
493,75,2.3113178159363206,0.00012890099969808944,0.1723337173461914,True
494,145,9.5254829850549,0.00014080300024943426,0.17255496978759766,True
495,158,1.2562679888560666,0.00013418899834505282,0.17240238189697266,True
496,150,17.739820695940498,0.00014821299919276498,0.1725778579711914,True
497,92,7.107208036476457,0.0001348450023215264,0.17241764068603516,True
498,143,2.0676539984743436,0.00014269500024965964,0.17240238189697266,True
499,255,3.0459692271785945,0.00017007199858198874,0.1723947525024414,True
500,124,3.6655558196692573,0.0001323140022577718,0.1723794937133789,True
501,161,2.6640306393279354,0.00013930500062997453,0.1725015640258789,True
502,151,1.9018416151807764,0.00013791600213153288,0.1724710464477539,True
503,64,3.0216797926146373,0.00013922099969931878,0.17246341705322266,True
504,151,4.717699071184969,0.00014127699978416786,0.17247867584228516,True
505,8,4.273963065973967,0.00013651699919137172,0.17244815826416016,True
506,158,5.209800242341886,0.00015614999938406982,0.17252445220947266,True
507,24,3.1662071473130995,0.0001567029976285994,0.17241764068603516,True
508,132,2.5184522310147743,0.00013957499686512165,0.1725015640258789,True
509,282,1.0456241316335741,0.00015644800078007393,0.17243289947509766,True
510,158,3.2140180438034007,0.00014484099665423855,0.1725931167602539,True
511,75,3.18014039723437,0.00013808400035486557,0.1724252700805664,True
512,151,4.148704590707878,0.00014025100244907662,0.17253971099853516,True
513,144,10.995841791398997,0.00015510899902437814,0.17260074615478516,True
514,118,1.4236389888563052,0.00014134199955151416,0.1723947525024414,True
515,133,4.243475703240823,0.00014282699703471735,0.17258548736572266,True
516,125,4.211185835177964,0.00014123399887466803,0.17249393463134766,True
517,483,10.46208155730672,0.00013956499969935976,0.1725320816040039,False
518,65,1.8446185818513097,0.0001430509983038064,0.17238712310791016,True
519,282,3.9988141118945766,0.00015232099758577533,0.17238712310791016,True
520,246,3.05565409251917,0.00013805599883198738,0.17246341705322266,True
521,133,2.443694615428094,0.00013961799777462147,0.17241764068603516,True
522,118,1.9151747219180286,0.00014255799760576338,0.17243289947509766,True
523,271,3.065848070849411,0.00014331100101117045,0.1724710464477539,True
524,245,2.791358333014348,0.00016241300181718543,0.17247867584228516,True
525,124,3.8455688416074056,0.00013544700050260872,0.17231082916259766,True
526,1,2.293009276786794,0.0001358459994662553,0.17243289947509766,True
527,242,1.156669779573618,0.00013497100007953122,0.17240238189697266,True
528,151,2.9561220128734833,0.00017833800302469172,0.1724405288696289,True
529,208,13.469740937674931,0.000161134001245955,0.1724557876586914,True
530,8,2.8867054647273176,0.00013488200056599453,0.1723947525024414,True
531,24,1.7864768996729492,0.0001529159999336116,0.17249393463134766,True
532,106,11.716957653392885,0.00014184000247041695,0.17249393463134766,True
533,85,3.6816449654238106,0.00014985199959482998,0.17249393463134766,True
534,145,5.504301748014015,0.00014069899771129712,0.17253971099853516,True
535,161,1.9162809539906498,0.00013846200090483762,0.1724710464477539,True
536,33,3.35575946769131,0.00015016500037745573,0.17246341705322266,True
537,242,1.8403308305660908,0.00013343300088308752,0.1724100112915039,True
538,226,3.9242352410239016,0.00015190199701464735,0.17253971099853516,True
539,169,2.207811976784976,0.0001555500020913314,0.17238712310791016,True
540,435,27.089669515470412,0.0001439340012439061,0.1726083755493164,False
541,196,3.2179372444008836,0.00013573400065070018,0.1724100112915039,True
542,98,3.202755106920677,0.00015393400099128485,0.17263126373291016,True
543,38,2.876046847758366,0.00013505500101018697,0.17243289947509766,True
544,144,2.5965741829882574,0.00013777300046058372,0.1724710464477539,True
545,145,10.76571751024448,0.0001454070006730035,0.1724710464477539,True
546,133,1.8480954519096164,0.00014646799900219776,0.1724100112915039,True
547,125,7.48729566836887,0.00014522399942507036,0.17250919342041016,True
548,75,3.665951184639468,0.00013427600060822442,0.17240238189697266,True
549,118,1.5977402641994913,0.00013491899881046265,0.17243289947509766,True
550,282,3.847928538945581,0.00014613399980589747,0.17250919342041016,True
551,64,3.899497410608218,0.00013581299936049618,0.17243289947509766,True
552,65,2.6457946710714153,0.00014432800162467174,0.1723489761352539,True
553,247,1.742239925399587,0.00013590500020654872,0.1724405288696289,True
554,13,38.854687165890205,0.0001467689980927389,0.17261600494384766,True
555,242,2.5967693250576596,0.00013180499809095636,0.17234134674072266,True
556,133,1.5975618494532013,0.00013566399866249412,0.1724252700805664,True
557,242,2.2900686903452314,0.00013704299999517389,0.17246341705322266,True
558,82,1.9785075711075497,0.00013341800149646588,0.17240238189697266,True
559,149,3.8559407706526097,0.0001495729993621353,0.17235660552978516,True
560,246,2.1113699360017524,0.00015056100164656527,0.17247867584228516,True
561,98,4.255419858428855,0.00015122999684535898,0.1726541519165039,True
562,38,4.567029658057434,0.00017089100219891407,0.1725015640258789,True
563,38,1.3181226702031972,0.00013695900270249695,0.17238712310791016,True
564,187,3.891544311248394,0.00014327800090541132,0.17258548736572266,True
565,216,3.1332570431000963,0.00013988700084155425,0.17247867584228516,True
566,242,2.2040536762938885,0.00014187199849402532,0.1724252700805664,True
567,269,6.456626208355173,0.00014040799942449667,0.17247867584228516,True
568,135,5.638897324753734,0.00014115300291450694,0.17252445220947266,True
569,271,4.011843878494641,0.00014288300008047372,0.1724863052368164,True
570,268,2.0781772467835005,0.00014178499986883253,0.17243289947509766,True
571,75,1.8418352284460022,0.00013621200196212158,0.1724405288696289,True
572,143,7.305501272669433,0.00014274400018621236,0.1725320816040039,True
573,226,5.1127431176891305,0.0001377989974571392,0.17246341705322266,True
574,144,3.948111927507385,0.00014870899758534506,0.17253971099853516,True
575,124,3.3650205807440017,0.00013903400031267665,0.17243289947509766,True
576,144,7.820730068896412,0.00014640299923485145,0.17263126373291016,True
577,226,4.093239054208982,0.00015190400154097006,0.17244815826416016,True
578,64,2.726310210698566,0.00013885500084143132,0.1724405288696289,True
579,242,2.7394883103253767,0.0001370190002489835,0.1724100112915039,True
580,24,2.3091822572132057,0.000134141999296844,0.17238712310791016,True
581,255,2.7420436654944487,0.00014018500223755836,0.1725015640258789,True
582,169,2.159323494132122,0.000150123996718321,0.1723184585571289,True
583,242,2.0854607609441116,0.00014838499919278547,0.17249393463134766,True
584,132,1.4071696688661122,0.0001394969985994976,0.17241764068603516,True
585,271,3.0254687621528253,0.00013930599743616767,0.1724252700805664,True
586,82,3.7485142642440223,0.00014442600149777718,0.17246341705322266,True
587,24,1.2808757103123563,0.0001312849999521859,0.17234134674072266,True
588,13,13.13472061195578,0.00018221500067738816,0.1725168228149414,True
589,118,2.3761455787352066,0.0001439910010958556,0.1724710464477539,True
590,98,2.0031158445141437,0.000138868999783881,0.17238712310791016,True
591,226,4.348685695311129,0.00014582599760615267,0.1724557876586914,True
592,65,2.38640098773273,0.0001410040022165049,0.1724405288696289,True
593,82,2.6579004985290737,0.00013737299741478637,0.1723794937133789,True
594,271,3.5579214517360978,0.00013825800124322996,0.17240238189697266,True
595,129,2.4708288895983976,0.00014434200056712143,0.1724557876586914,True
596,145,7.484740086281171,0.0001543159996799659,0.1725473403930664,True
597,133,2.1562880105164943,0.00015536900173174217,0.17243289947509766,True
598,135,1.8945007964057181,0.00015276100020855665,0.1724405288696289,True
599,66,7.384159439837806,0.0001445599991711788,0.17249393463134766,True
600,166,1.5508175809194196,0.00013451800259645097,0.1724405288696289,True
601,127,3.455442387192144,0.00013312800001585856,0.17238712310791016,True
602,132,3.4410001859900974,0.00014935299986973405,0.17253971099853516,True
603,106,6.683133019899444,0.00014700300016556866,0.17249393463134766,True
604,151,11.056320568868735,0.0001388179989589844,0.17250919342041016,True
605,24,2.7722414884833784,0.0001563119985803496,0.1724557876586914,True
606,144,2.5419356923054663,0.00013969200153951533,0.17246341705322266,True
607,273,3.6576392371635116,0.00015590800103382207,0.1725168228149414,True
608,268,1.8743930107705788,0.00013857599697075784,0.1723947525024414,True
609,226,3.519063669458447,0.00013769699944532476,0.1723794937133789,True
610,130,4.2511129255379965,0.00017568000112078153,0.17237186431884766,True
611,133,2.4300066885890876,0.00013729000056628138,0.1723947525024414,True
612,242,1.7604592249500866,0.00013791300079901703,0.17237186431884766,True
613,242,3.224893680302142,0.00014654299957328476,0.17250919342041016,True
614,271,3.9025378175293803,0.0001501240003562998,0.1724252700805664,True
615,143,1.391664779042664,0.00014828599887550808,0.1724252700805664,True
616,151,2.587327285632338,0.00014984600056777708,0.17247867584228516,True
617,242,2.404076045072958,0.00015847000031499192,0.1725015640258789,True
618,24,0.977228891508947,0.0001343909971183166,0.1723642349243164,True
619,13,22.776504634101276,0.00015263499881257303,0.1725015640258789,True
620,242,1.381667034370899,0.00013381199823925272,0.17235660552978516,True
621,129,1.7742571579521762,0.00014709600145579316,0.17247867584228516,True
622,246,2.698061551455928,0.0001413469981343951,0.1724863052368164,True
623,166,2.008993524341341,0.00013126799967722036,0.1723642349243164,True
624,133,2.767000065621016,0.0001343990006716922,0.17243289947509766,True
625,242,4.144621623990533,0.0001519920006103348,0.17241764068603516,True
626,271,7.820100009824551,0.00013861800107406452,0.17246341705322266,True
627,143,1.800384545556422,0.00014853199900244363,0.17246341705322266,True
628,255,2.1379804069617254,0.00013824300185660832,0.17250919342041016,True
629,269,2.6343998967840707,0.00013069600026938133,0.17235660552978516,True
630,75,7.100379219597811,0.00014451300012296997,0.17244815826416016,True
631,118,1.9029062732216544,0.00013326000043889508,0.17241764068603516,True
632,95,6.710053134627113,0.000140279000333976,0.17250919342041016,True
633,98,1.4245387268887075,0.0001306610029132571,0.17232608795166016,True
634,118,1.9937515988420542,0.0001671719983278308,0.17244815826416016,True
635,483,4.196077643680523,0.00014589100101147778,0.17255496978759766,False
636,76,2.9377958769376478,0.0001287500017497223,0.17231082916259766,True
637,161,1.6820883898113175,0.00013627299995278008,0.17241764068603516,True
638,98,1.9778732821258649,0.00013744600073550828,0.1724710464477539,True
639,269,5.613110844681142,0.00014218200158211403,0.17250919342041016,True
640,268,1.4142037934591922,0.00013051399946562015,0.17234134674072266,True
641,271,2.2127683511817997,0.00013049400149611756,0.17234134674072266,True
642,129,1.3807137156729248,0.00013133899847161956,0.17235660552978516,True
643,268,2.0020449113376344,0.00013465700249071233,0.17238712310791016,True
644,10,2.5369955592412903,0.0001424710026185494,0.17240238189697266,True
645,245,2.5136837085312336,0.00013984500037622638,0.17247867584228516,True
646,143,0.7550410233204051,0.0001343970034213271,0.17238712310791016,True
647,135,3.0507897974584175,0.00016189300004043616,0.17240238189697266,True
648,24,1.4722356114231505,0.0001345269993180409,0.1723794937133789,True
649,435,27.82358436256638,0.00014881199967931025,0.1726236343383789,False
650,269,1.56678104473226,0.00013645099897985347,0.1724405288696289,True
651,226,2.0253920126858764,0.00014552500215359032,0.17249393463134766,True
652,158,2.279790465994356,0.00014123399887466803,0.1723794937133789,True
653,226,3.6570286321092005,0.00016767100169090554,0.17243289947509766,True
654,135,1.1945369042081857,0.0001304139987041708,0.1723337173461914,True
655,246,2.3137158756108605,0.0001382810005452484,0.1724710464477539,True
656,24,3.785597807040675,0.00013973300156067125,0.1725168228149414,True
657,75,2.0156281183797473,0.00013078500342089683,0.17235660552978516,True
658,245,2.34420654881304,0.00013002999912714586,0.17235660552978516,True
659,124,4.876754858028067,0.00014439699953072704,0.1725320816040039,True
660,166,2.2935640150339225,0.00013649899847223423,0.17240238189697266,True
661,282,2.291154127028829,0.0001405729999532923,0.1724405288696289,True
662,269,2.4497276598717095,0.0001451090029149782,0.17244815826416016,True
663,158,3.608708928670465,0.00015403900033561513,0.1724863052368164,True
664,66,6.049199642737625,0.0003296629984106403,0.1724557876586914,True
665,118,2.217464121943528,0.00013474400111590512,0.1724100112915039,True
666,38,4.267837258724908,0.00013831700198352337,0.1724100112915039,True
667,38,2.6565074971621745,0.00013696599853574298,0.17243289947509766,True
668,151,2.2278718089913974,0.0001410689983458724,0.1724100112915039,True
669,158,3.9051391417041725,0.00014352199650602415,0.1725473403930664,True
670,149,2.1797794464028435,0.0001352199979010038,0.1723642349243164,True
671,132,2.8855397932302593,0.00013922099969931878,0.1724557876586914,True
672,66,3.684050786151907,0.00013503199807018973,0.17237186431884766,True
673,435,28.73492971361639,0.00014869999722577631,0.17257022857666016,False
674,65,2.4419410356333886,0.0001433609977539163,0.1724252700805664,True
675,65,4.538808630335885,0.00014475199714070186,0.1724405288696289,True
676,149,2.371246144841566,0.00013462499919114634,0.17234134674072266,True
677,144,16.161531595135017,0.0001452550022804644,0.17258548736572266,True
678,226,1.9980502504264268,0.00013294800010044128,0.17240238189697266,True
679,246,2.548466589396045,0.0001316499983659014,0.1723947525024414,True
680,132,4.023866520100385,0.00013543300156015903,0.17243289947509766,True
681,98,3.5133633713053993,0.00014381400251295418,0.1725473403930664,True
682,158,3.6093098608699177,0.00014079200263950042,0.17255496978759766,True
683,38,3.6371073054833496,0.00013669599866261706,0.17246341705322266,True
684,149,3.0146633661374533,0.00013713800217374228,0.1724252700805664,True
685,33,4.634737016192888,0.00013922400103183463,0.1724863052368164,True
686,149,2.1984733503107456,0.0001465029999963008,0.17243289947509766,True
687,226,3.005616507826968,0.000132689001475228,0.17240238189697266,True
688,76,3.077753644651029,0.00013814699923386797,0.17244815826416016,True
689,196,2.9924635373583723,0.00017273299818043597,0.17241764068603516,True
690,130,1.6047463596528253,0.00013644600039697252,0.17237186431884766,True
691,226,5.818252152407,0.00014001900126459077,0.17244815826416016,True
692,158,4.626733290056283,0.00015992999760783277,0.1726236343383789,True
693,208,3.125086955529991,0.00014171099974191748,0.1725015640258789,True
694,24,2.540725042811991,0.00013900600242777728,0.17246341705322266,True
695,282,1.3292614375521357,0.00014292400010162964,0.1724710464477539,True
696,98,2.082666630014936,0.00014486899817711674,0.17246341705322266,True
697,166,1.7194334603398191,0.0001324479999311734,0.17235660552978516,True
698,66,4.424555250191174,0.00014760699923499487,0.1724252700805664,True
699,268,2.4435529358801285,0.00014506400111713447,0.1723947525024414,True
700,82,2.9124430868656237,0.00014320300033432432,0.1724405288696289,True
701,38,2.5162565681494713,0.00019173599866917357,0.17235660552978516,True
702,65,5.338904342342534,0.00013876299999537878,0.1724710464477539,True
703,282,2.1134917446311063,0.00014260899843066,0.17247867584228516,True
704,196,3.436667746461605,0.00014484300118056126,0.17243289947509766,True
705,282,2.9377377957816257,0.0002940150006907061,0.17252445220947266,True
706,75,2.793855918666293,0.00013405700155999511,0.1723947525024414,True
707,143,2.1314407429017344,0.0001415170008840505,0.17247867584228516,True
708,125,7.043865939077275,0.00013721299910685048,0.17243289947509766,True
709,125,7.7793206730815125,0.00020035099805681966,0.17249393463134766,True
710,255,3.9944013361619812,0.0002129580025211908,0.1725168228149414,True
711,135,5.0432677948057805,0.00013815100101055577,0.17250919342041016,True
712,144,3.1872956620611297,0.00015148899910855107,0.17246341705322266,True
713,125,2.874868947445618,0.00013793199832434766,0.1725015640258789,True
714,132,1.4092537764170705,0.00016047400276875123,0.1724405288696289,True
715,135,1.5387096981975996,0.0001344130032521207,0.17238712310791016,True
716,82,2.7600805108360937,0.00013848700109519996,0.17246341705322266,True
717,66,3.3783632759828968,0.00014007600111654028,0.17250919342041016,True
718,75,4.191981553027353,0.00013096400289214216,0.17237186431884766,True
719,125,2.9125881740471367,0.00013833500270266086,0.17249393463134766,True
720,151,3.019830153207326,0.0001589739986229688,0.1724252700805664,True
721,435,46.01243874938307,0.0001517429991508834,0.1726999282836914,False
722,10,2.9789035593195594,0.0001383479975629598,0.17244815826416016,True
723,82,2.2694952911162765,0.00013677099923370406,0.17240238189697266,True
724,161,2.8327082648346718,0.00014434599870583043,0.1724710464477539,True
725,132,4.976201308763891,0.0001521399972261861,0.1724557876586914,True
726,158,5.435043290422472,0.0001378050001221709,0.1725168228149414,True
727,143,1.9035145787046162,0.00013342199963517487,0.1724100112915039,True
728,271,3.3925869073846067,0.0001364840027235914,0.1724710464477539,True
729,273,3.6376668307426128,0.00014093299978412688,0.17252445220947266,True
730,24,1.0159097584793249,0.00013184899944462813,0.1723489761352539,True
731,149,2.6012435496210236,0.00014586599718313664,0.17243289947509766,True
732,208,4.673272655897478,0.00014489299792330712,0.1725168228149414,True
733,143,2.0462116463841094,0.00014138599726720713,0.1724405288696289,True
734,82,2.8983640688812606,0.00013701200077775866,0.17244815826416016,True
735,24,1.811136044115539,0.00013644800128531642,0.17243289947509766,True
736,161,2.35950866321644,0.00014097700113779865,0.1724710464477539,True
737,98,5.040017635604658,0.0001450810013921,0.1725473403930664,True
738,129,2.0236371165978464,0.00013930700151831843,0.17244815826416016,True
739,64,3.4467731917401707,0.00014245600323192775,0.1723947525024414,True
740,273,1.4498576840348523,0.00013815399870509282,0.1724405288696289,True
741,118,2.2982257497163223,0.0001471939976909198,0.17247867584228516,True
742,435,25.80931701373997,0.0001560339987918269,0.17273807525634766,False
743,242,2.805505466568693,0.0001493660020059906,0.17249393463134766,True
744,132,3.6469976619942526,0.00015053799870656803,0.1725931167602539,True
745,133,2.0692879163385216,0.00014629699944634922,0.1724710464477539,True
746,98,6.166176841618422,0.0001862719982455019,0.17258548736572266,True
747,51,20.98001492398055,0.00014002600073581561,0.1725473403930664,True
748,65,4.7955213478636285,0.00014169099813443609,0.1724710464477539,True
749,143,1.9500980827769576,0.00014018099682289176,0.1724710464477539,True
750,130,8.543130948040051,0.00014891599857946858,0.1724405288696289,True
751,132,4.327977661580151,0.0001380360008624848,0.17249393463134766,True
752,161,4.044088529990759,0.00013688400213140994,0.1724252700805664,True
753,166,2.292795622747053,0.000139746000058949,0.17240238189697266,True
754,92,4.706390432852681,0.00013577400022768416,0.17238712310791016,True
755,133,2.6735976222478777,0.0001442219981981907,0.1724405288696289,True
756,169,2.184440677600758,0.00013722099902224727,0.17247867584228516,True
757,24,1.656981219629141,0.00013630700050271116,0.1724405288696289,True
758,143,2.0675525589761357,0.00015356899893959053,0.1724557876586914,True
759,242,3.4482977929849508,0.0001482459992985241,0.17246341705322266,True
760,65,3.189333973984626,0.00014097699749981984,0.1723489761352539,True
761,125,3.075684230621294,0.00014471100075752474,0.1724557876586914,True
762,82,2.4952132671941225,0.00013356199997360818,0.1723794937133789,True
763,271,1.286843807187803,0.00013679500261787325,0.17241764068603516,True
764,246,2.226541697168229,0.00014480800018645823,0.1725473403930664,True
765,135,1.2651110063415407,0.00013217100058682263,0.17238712310791016,True
766,38,2.2592840947567594,0.00014020299931871705,0.17243289947509766,True
767,132,2.2011641504571084,0.00016217399752349593,0.17246341705322266,True
768,243,3.5087418874653475,0.00014172100054565817,0.17250919342041016,True
769,124,3.463633136166817,0.00017468700025347061,0.1724405288696289,True
770,129,2.9396647789586043,0.00014359300257638097,0.17250919342041016,True
771,135,2.465475211721174,0.00013355900227907114,0.1724100112915039,True
772,151,1.8849378010224833,0.00013416100046015345,0.17243289947509766,True
773,127,3.560808679098355,0.00013698100156034343,0.1724557876586914,True
774,282,1.8717019349299484,0.00014262599870562553,0.17253971099853516,True
775,118,3.197411097054829,0.0001387430020258762,0.17243289947509766,True
776,65,3.885754463512031,0.0001335460001428146,0.1723947525024414,True
777,135,1.6677802814387561,0.00014040699898032472,0.17252445220947266,True
778,435,69.88856315498457,0.00013407599908532575,0.1723947525024414,False
779,143,1.4632822595707364,0.0001285150028706994,0.1723184585571289,True
780,161,2.795824280185453,0.00017342600040137768,0.1724252700805664,True
781,145,12.163941012532396,0.00013646400111611,0.17247867584228516,True
782,65,4.856032633934399,0.0001413469981343951,0.17237186431884766,True
783,125,3.080535435756773,0.00013263400251162238,0.1723947525024414,True
784,135,3.022175308151326,0.00015078800061019138,0.17253971099853516,True
785,98,3.04470386954855,0.00014201700105331838,0.1725473403930664,True
786,135,4.0195155012020365,0.00013868499809177592,0.1724710464477539,True
787,150,10.076318032827038,0.0001397500018356368,0.1725168228149414,True
788,65,3.3030575541820246,0.00013576800120063126,0.1724405288696289,True
789,24,2.236117458531927,0.00015163100033532828,0.17246341705322266,True
790,82,2.142298522962414,0.00013777799904346466,0.1724863052368164,True
791,75,0.7304944844961614,0.00012782900012098253,0.17231082916259766,True
792,271,2.143168321738964,0.00013712099826079793,0.17240238189697266,True
793,118,2.0113555881288123,0.00013991899686516263,0.1724100112915039,True
794,75,1.521205243551297,0.00013656200098921545,0.1723947525024414,True
795,274,3.1584922197740837,0.00013703600052394904,0.17244815826416016,True
796,245,3.727263632305324,0.00013359999866224825,0.1724100112915039,True
797,135,1.8002199117841962,0.00013782699898001738,0.17247867584228516,True
798,98,2.4025237278207654,0.00013537099948734976,0.1724252700805664,True
799,10,2.4383606624838854,0.00013534599929698743,0.1724100112915039,True
800,247,2.463624164335159,0.00013964599929749966,0.1725320816040039,True
801,65,3.618636813412397,0.00014084299982641824,0.17246341705322266,True
802,149,2.9062209363684186,0.00013619699893752113,0.17240238189697266,True
803,13,10.780861316047513,0.00014059000022825785,0.17246341705322266,True
804,13,6.276813243557684,0.00013629800014314242,0.17238712310791016,True
805,166,3.0885834590517485,0.00013705499804927967,0.17243289947509766,True
806,166,2.143307010095577,0.00014242600082070567,0.17243289947509766,True
807,98,2.2018820046583496,0.0001422080022166483,0.17243289947509766,True
808,271,3.502066627221492,0.0001509059984527994,0.1724863052368164,True
809,169,2.536591492360699,0.0001360079986625351,0.17244815826416016,True
810,98,1.5165616155427284,0.00013716600005864166,0.1724710464477539,True
811,132,4.412617060655614,0.0001374769999529235,0.1724710464477539,True
812,143,4.954125962622327,0.00013776999912806787,0.1724252700805664,True
813,282,3.6027060354172535,0.00013987500278744847,0.1724557876586914,True
814,226,1.6839260638411762,0.0001330779996351339,0.17237186431884766,True
815,268,4.847325777832934,0.00014369799828273244,0.1725015640258789,True
816,274,2.056531473006252,0.00014574899978470057,0.17244815826416016,True
817,24,2.3583291751988367,0.00013594600022770464,0.1724252700805664,True
818,38,5.65557379966915,0.00013340800069272518,0.17238712310791016,True
819,129,1.8755104689353104,0.00013406799916992895,0.17240238189697266,True
820,51,6.087242327799405,0.0001478589983889833,0.1725320816040039,True
821,242,2.077541821034918,0.00013429899991024286,0.1724100112915039,True
822,242,2.0764228183190463,0.00014186500266077928,0.17247867584228516,True
823,66,2.0327877370250067,0.0001379410023218952,0.17244815826416016,True
824,226,1.5495777071785712,0.00031907999800750986,0.1723642349243164,True
825,271,1.7915945130392867,0.00013237199891591445,0.1723489761352539,True
826,98,1.7827647283104118,0.00015066999912960455,0.17241764068603516,True
827,151,3.6803549834281073,0.0001497209996159654,0.1725015640258789,True
828,187,3.5605554229811682,0.00014085200018598698,0.1725320816040039,True
829,125,5.911822169782267,0.0001370110003335867,0.17240238189697266,True
830,247,4.941279237902631,0.00014547499813488685,0.1725778579711914,True
831,166,1.535351602627138,0.0001392800004396122,0.17232608795166016,True
832,282,1.9140861938443443,0.0001346969984297175,0.17240238189697266,True
833,158,8.487923104222084,0.00015250099750119261,0.17257022857666016,True
834,161,3.0978707025415835,0.00014465400090557523,0.17246341705322266,True
835,151,2.1676372409365716,0.00013643700003740378,0.17246341705322266,True
836,274,3.6722842823742794,0.00013837100050295703,0.1724557876586914,True
837,166,1.187678748157523,0.0001371609978377819,0.1724100112915039,True
838,66,1.8677351347222124,0.00014473600094788708,0.17247867584228516,True
839,242,1.6951193192448453,0.00013681299969903193,0.17244815826416016,True
840,118,2.494035795597314,0.00013318899800651707,0.1724405288696289,True
841,38,3.6736533576707338,0.0001394789978803601,0.1723794937133789,True
842,76,3.3368273633272842,0.00014124999870546162,0.17232608795166016,True
843,246,6.318129736514452,0.00017422600285499357,0.17258548736572266,True
844,75,2.7435179997274384,0.0001358720001007896,0.1724252700805664,True
845,135,1.6371279533425107,0.00013546000263886526,0.1724100112915039,True
846,161,1.7030527481620548,0.00013386100181378424,0.17240238189697266,True
847,98,13.076778331102396,0.00014173499948810786,0.17257022857666016,True
848,65,3.3457520362038125,0.00013888000103179365,0.17246341705322266,True
849,282,2.5475252385533187,0.00013916000170866027,0.17249393463134766,True
850,151,1.4170381064554367,0.00015591800183756277,0.17244815826416016,True
851,98,3.5634621836490195,0.00014140699931886047,0.17252445220947266,True
852,483,58.313869053799145,0.00017132799985120073,0.1726236343383789,False
853,98,1.6140604499022093,0.00013929299893788993,0.17250919342041016,True
854,208,2.659093587837977,0.0001512909984739963,0.1725473403930664,True
855,166,2.684061375330264,0.00014931400073692203,0.1724863052368164,True
856,282,3.0045764028610416,0.00013503400259651244,0.17241764068603516,True
857,151,1.622864149448378,0.00013679100084118545,0.1724710464477539,True
858,10,3.307328831732678,0.00013999500151840039,0.1725168228149414,True
859,118,2.822539731997437,0.00015793799684615806,0.1724863052368164,True
860,33,7.2474542486066875,0.00013918799959355965,0.17247867584228516,True
861,246,2.611897619751451,0.00013928299813414924,0.17246341705322266,True
862,1,14.73785685838659,0.00014043199917068705,0.17250919342041016,True
863,51,2.8142596706069543,0.00013905200103181414,0.17249393463134766,True
864,8,10.875353831200245,0.00015300800077966414,0.17257022857666016,True
865,161,2.762215868345102,0.00013359999866224825,0.1724405288696289,True
866,51,3.332475965868605,0.00016559899813728407,0.17250919342041016,True
867,33,7.977264184031739,0.0001381290021527093,0.17247867584228516,True
868,269,1.73904427019554,0.00013177799701225013,0.17238712310791016,True
869,133,2.088805615070129,0.0001464100023440551,0.17241764068603516,True
870,24,3.503547423341375,0.00014324199946713634,0.1725778579711914,True
871,282,8.195856017435556,0.00014182999802869745,0.17247867584228516,True
872,196,2.773884711435772,0.00013464700168697163,0.17237186431884766,True
873,135,11.177356743274382,0.00013430900071398355,0.1724405288696289,True
874,166,1.0692777769533857,0.00013071500143269077,0.1723489761352539,True
875,82,3.5162091023862048,0.00013589300215244293,0.17246341705322266,True
876,82,1.1555556463088137,0.0001338239999313373,0.1723184585571289,True
877,24,3.8230164541703253,0.0001372560000163503,0.1724557876586914,True
878,129,3.2484832668692887,0.00016784599938546307,0.17252445220947266,True
879,38,1.9388830335408413,0.00013253400175017305,0.1723947525024414,True
880,151,2.5931417630616522,0.00014814799942541867,0.1724100112915039,True
881,242,3.8938163828260532,0.00014847499915049411,0.17241764068603516,True
882,161,2.087997923829429,0.00014836400077911094,0.1725168228149414,True
883,143,2.734112872422253,0.00014428800204768777,0.1725015640258789,True
884,242,1.1561746676906413,0.0001433119978173636,0.1724557876586914,True
885,130,3.8324303096807517,0.0001469509988965001,0.1724557876586914,True
886,242,3.708728066899828,0.00015094600166776218,0.1723489761352539,True
887,106,26.08979026771245,0.00014311300037661567,0.17258548736572266,True
888,51,15.985994082862627,0.0001424710026185494,0.1725778579711914,True
889,254,36.45868729300859,0.00014113100041868165,0.17255496978759766,True
890,13,47.10771841344011,0.00015776299915160052,0.17261600494384766,True
891,133,2.4105480695940202,0.00014055300198378973,0.1724100112915039,True
892,273,1.9481687752354313,0.00013405199933913536,0.17241764068603516,True
893,132,4.187407000918324,0.00014343400107463822,0.17247867584228516,True
894,130,3.0076012044456157,0.00013498100088327192,0.17240238189697266,True
895,255,3.904558764623711,0.00014310400001704693,0.17250919342041016,True
896,151,3.2747218018673045,0.0001475850003771484,0.17243289947509766,True
897,247,1.7549541373556512,0.0001415270016877912,0.1725625991821289,True
898,187,3.5185512257359335,0.00016133300232468173,0.1725168228149414,True
899,169,3.612399315805572,0.00014063499838812277,0.17247867584228516,True
900,246,2.5326095458298887,0.00013800300075672567,0.1724710464477539,True
901,132,1.8243748871994196,0.00014518899843096733,0.17247867584228516,True
902,166,2.1463908730161716,0.00013506200048141181,0.1724405288696289,True
903,118,2.5469504124507845,0.0001632249986869283,0.1724557876586914,True
904,187,2.264879210322295,0.00013966200276627205,0.1725168228149414,True
905,125,5.27736093252535,0.00014182800077833235,0.17255496978759766,True
906,51,2.568662953280623,0.0001427530005457811,0.17249393463134766,True
907,268,1.545397031929513,0.00013494100130628794,0.1723947525024414,True
908,24,2.514305570945654,0.0001752579992171377,0.17246341705322266,True
909,329,3.489938721361645,0.00014018900037626736,0.17247867584228516,False
910,269,8.10421212318821,0.0001377280023007188,0.1725015640258789,True
911,226,1.9237726219619582,0.0001530740009911824,0.17232608795166016,True
912,38,1.7958650027867684,0.0001361539980280213,0.1724557876586914,True
913,158,4.034926327259768,0.00013883499923394993,0.1725168228149414,True
914,118,2.495152506907461,0.00013705899982596748,0.1724863052368164,True
915,145,15.270068750295362,0.00013659899923368357,0.1724405288696289,True
916,124,2.0365054688605664,0.00015950200031511486,0.1725320816040039,True
917,144,4.493913677658829,0.00013811199823976494,0.1724863052368164,True
918,271,3.0665196906205203,0.00014612100130761974,0.1724252700805664,True
919,82,5.197309510062663,0.00013984099859953858,0.1724100112915039,True
920,132,2.337618232134276,0.000135627000418026,0.17240238189697266,True
921,196,2.93654310965737,0.00014242500037653372,0.17238712310791016,True
922,166,1.9446479515367125,0.00014699800158268772,0.17249393463134766,True
923,24,2.3972499504858322,0.00013892000060877763,0.17244815826416016,True
924,226,2.9748928706890045,0.00013346800187719055,0.1723794937133789,True
925,66,2.6784174420383278,0.00014152799849398434,0.17246341705322266,True
926,196,4.161764557673669,0.00013683799988939427,0.1724405288696289,True
927,158,3.333541891255564,0.0001374769999529235,0.17246341705322266,True
928,242,4.096236267854212,0.00013394399866228923,0.17240238189697266,True
929,118,2.829083747544718,0.00012890300058643334,0.1723184585571289,True
930,245,3.5520737389292862,0.00015722699754405767,0.1725778579711914,True
931,65,3.535158416542939,0.00016242899801000021,0.1724863052368164,True
932,24,5.463806619060607,0.00014118900071480311,0.1725015640258789,True
933,151,1.6831334522845265,0.0001372760016238317,0.1724557876586914,True
934,247,2.3837172189428513,0.00019538500055205077,0.17252445220947266,True
935,118,4.029398265992399,0.00016094700185931288,0.17246341705322266,True
936,51,5.247675971054714,0.00013675900117959827,0.1724710464477539,True
937,132,1.6561047677348093,0.00013590399976237677,0.1724100112915039,True
938,76,3.4327715949426634,0.00013506100003723986,0.17241764068603516,True
939,269,3.165567002073642,0.00014514899885398336,0.17240238189697266,True
940,1,8.8568217903698,0.00014189500143402256,0.17255496978759766,True
941,151,2.797823285601778,0.00013903199942433275,0.17250919342041016,True
942,65,3.640581312323412,0.00013961599688627757,0.1724405288696289,True
943,483,4.770511585189634,0.00013805699927615933,0.1725015640258789,False
944,149,14.287147191325083,0.00016321799921570346,0.17253971099853516,True
945,144,4.590612426088826,0.00014691399701405317,0.1724405288696289,True
946,149,2.292426740322957,0.00013535699690692127,0.17244815826416016,True
947,242,3.0657814461077066,0.00013432299965643324,0.1724100112915039,True
948,149,3.0182954945487173,0.00014082300185691565,0.1724710464477539,True
949,106,13.245466193687408,0.00014810500215389766,0.1726236343383789,True
950,98,1.9804163794269083,0.00013907199900131673,0.1725168228149414,True
951,282,2.101362934081955,0.00017798899716581218,0.1724557876586914,True
952,166,2.193767727554804,0.0001372600017930381,0.17240238189697266,True
953,106,7.746572586260935,0.00013837100050295703,0.17246341705322266,True
954,143,1.798017865871502,0.00013476699677994475,0.17243289947509766,True
955,144,5.372806606492114,0.00014384400128619745,0.17253971099853516,True
956,242,3.526589057940655,0.00022011700275470503,0.17243289947509766,True
957,166,3.1712753793739195,0.000152632001118036,0.1724100112915039,True
958,169,2.3861019220389488,0.0001533030008431524,0.17235660552978516,True
959,187,2.8657550208721845,0.00014703100168844685,0.1724710464477539,True
960,144,4.6559042833248485,0.000142683999001747,0.17253971099853516,True
961,245,3.466317811047217,0.00013632500122184865,0.17247867584228516,True
962,282,4.156597783791988,0.0001510500005679205,0.1724863052368164,True
963,75,1.9958700546304828,0.00013063200094620697,0.1723642349243164,True
964,64,3.4056546627302207,0.0001422790010110475,0.17244815826416016,True
965,271,1.8535027386542062,0.00013082599980407394,0.1723489761352539,True
966,242,1.8296512448242206,0.00015518999862251803,0.1724405288696289,True
967,242,2.102353566871672,0.0001835269977163989,0.1724863052368164,True
968,133,1.5390238479221814,0.00015770000027259812,0.1724557876586914,True
969,135,2.3171940363362182,0.00014323600044008344,0.17237186431884766,True
970,135,1.8180649522450447,0.00013393799963523634,0.17243289947509766,True
971,151,4.305607824405648,0.00015375200018752366,0.17257022857666016,True
972,130,2.156764733693274,0.0001319149996561464,0.1723337173461914,True
973,125,4.025725968643702,0.00015162099953158759,0.17246341705322266,True
974,24,3.978277842344576,0.00014605500109610148,0.1725015640258789,True
975,158,4.511948078851256,0.00014254699999582954,0.1725931167602539,True
976,38,4.623319948584463,0.00013800500164506957,0.1724557876586914,True
977,132,2.5957589684085485,0.00015068200082168914,0.1725015640258789,True
978,242,2.5443465490928925,0.00014705699868500233,0.17244815826416016,True
979,76,3.50172713863389,0.0001366360011161305,0.17244815826416016,True
980,8,3.603222871327407,0.00013367900101002306,0.1723794937133789,True
981,135,2.3889705601813374,0.0001546340026834514,0.17252445220947266,True
982,65,3.1668105042994625,0.0001371809994452633,0.17243289947509766,True
983,242,1.807377870971871,0.00013081399811198935,0.1723642349243164,True
984,435,27.804162741289982,0.00014201200247043744,0.17255496978759766,False
985,226,3.8888597147858275,0.00014853599714115262,0.17243289947509766,True
986,38,4.25918833859413,0.00013534900062950328,0.1724405288696289,True
987,282,2.4719914438778865,0.0001497939992987085,0.17253971099853516,True
988,271,2.658864434189424,0.00013754400060861371,0.17243289947509766,True
989,208,2.662673798348325,0.0001395660001435317,0.1724710464477539,True
990,245,6.462284763759241,0.00016060400230344385,0.17250919342041016,True
991,98,4.765009617264511,0.00014526399900205433,0.17263126373291016,True
992,133,1.254234932334611,0.00013328199929674156,0.17240238189697266,True
993,247,3.0628915740994294,0.00015754700143588707,0.1724710464477539,True
994,243,2.5608241536413674,0.0001506849985162262,0.1724252700805664,True
995,144,10.017357913201169,0.00014928000018699095,0.17258548736572266,True
996,282,2.401245839464779,0.00015629499830538407,0.17252445220947266,True
997,106,8.952642749451408,0.00015175600128713995,0.17247867584228516,True
998,8,3.6681327225410056,0.00014205299885361455,0.17246341705322266,True
999,158,2.3046380743898545,0.00013709699851460755,0.1724710464477539,True
1000,92,4.042797963591391,0.0001453140030207578,0.17243289947509766,True
1001,226,4.885289669428092,0.00013886599845136516,0.17249393463134766,True
1002,124,3.5948837258962447,0.00014487500084214844,0.1724405288696289,True
1003,98,5.128367658139555,0.0001453990007576067,0.1726236343383789,True
1004,274,1.3898694832727247,0.00013909600238548592,0.17240238189697266,True
1005,247,3.0581981681328996,0.000137495000672061,0.1724710464477539,True
1006,33,4.5629675676925885,0.00013848099843016826,0.1724710464477539,True
1007,65,3.5592509340657545,0.00013359800141188316,0.17241764068603516,True
1008,187,2.7627689266964395,0.00014458700024988502,0.17255496978759766,True
1009,98,5.148840718114276,0.0001397990017721895,0.1725320816040039,True
1010,145,12.24766183493472,0.00013769300130661577,0.1725168228149414,True
1011,254,10.555341394702296,0.00014885400014463812,0.17264652252197266,True
1012,208,5.5285027125134025,0.00014231900058803149,0.17238712310791016,True
1013,98,4.218989567170929,0.00013514600141206756,0.17244815826416016,True
1014,10,2.8241622461580587,0.00013721499999519438,0.17241764068603516,True
1015,125,9.00278437861413,0.00013769799988949671,0.1724710464477539,True
1016,274,1.7149186450890792,0.00013188599768909626,0.1723947525024414,True
1017,149,3.5651841279396708,0.00014037700020708144,0.17241764068603516,True
1018,98,2.0856036575846337,0.00014629699944634922,0.1724710464477539,True
1019,133,3.403841692487385,0.00014037099754204974,0.17237186431884766,True
1020,169,1.87995282893874,0.0001382529990223702,0.17241764068603516,True
1021,92,2.8435994181636204,0.00013458800094667822,0.1724252700805664,True
1022,143,2.423421294732213,0.00014053899940336123,0.1725168228149414,True
1023,33,2.4434993969575816,0.00014423300308408216,0.1724710464477539,True
1024,150,5.3113024454371685,0.00014373499652720056,0.1724252700805664,True
1025,226,2.6959839515113013,0.00017243800175492652,0.1724405288696289,True
1026,242,3.5841465827225103,0.00014729699978488497,0.17249393463134766,True
1027,226,2.115795463653513,0.00014946400187909603,0.17243289947509766,True
1028,135,2.4147394400122804,0.00014570599887520075,0.1724557876586914,True
1029,8,3.8633537002306877,0.0001642440001887735,0.1724252700805664,True
1030,135,2.908925139578629,0.00014335700325318612,0.17244815826416016,True
1031,242,1.788257559406927,0.00014109999756328762,0.17238712310791016,True
1032,242,1.2695800030139428,0.00013269999908516183,0.17237186431884766,True
1033,246,2.839716497887324,0.00014736999946762808,0.17252445220947266,True
1034,226,1.9940556027362946,0.0001785869972081855,0.1723794937133789,True
1035,274,1.6441952544312048,0.0001352379986201413,0.17244815826416016,True
1036,135,2.948787223059794,0.00013142799798515625,0.17235660552978516,True
1037,145,36.98401062581941,0.0001499760001024697,0.1725168228149414,True
1038,1,3.480571961759923,0.000162547999934759,0.17258548736572266,True
1039,273,3.9238689705521477,0.0001388080017932225,0.1724863052368164,True
1040,82,2.7961226997757636,0.00013932399815530516,0.17250919342041016,True
1041,64,3.5890607733329696,0.00013378699804889038,0.17241764068603516,True
1042,65,3.763428603341947,0.0001464829983888194,0.17241764068603516,True
1043,274,1.1881979079727334,0.0001322390016866848,0.17238712310791016,True
1044,64,3.2712344098801287,0.00013500199929694645,0.17243289947509766,True
1045,166,1.8333278870032597,0.0001313680004386697,0.17232608795166016,True
1046,243,5.2990241638459405,0.00014333400031318888,0.17253971099853516,True
1047,24,2.564039058727322,0.000142072000016924,0.1724710464477539,True
1048,106,5.96175666273084,0.00016921499991440214,0.1725931167602539,True
1049,242,1.6742158601529573,0.00013822999972035177,0.17238712310791016,True
1050,118,1.8717115461662863,0.0001448379989597015,0.1725015640258789,True
1051,247,2.480189347162318,0.00016979700012598187,0.1724557876586914,True
1052,65,2.5554740078714127,0.00013404900164459832,0.1723947525024414,True
1053,245,4.308331866241713,0.00014163599917083047,0.1725168228149414,True
1054,10,3.167724649958371,0.0001447610011382494,0.17257022857666016,True
1055,215,2.497760722510175,0.0001378660017508082,0.1725015640258789,True
1056,66,3.024687122948554,0.000136392998683732,0.1724405288696289,True
1057,135,1.8423282295175722,0.00014265400022850372,0.17243289947509766,True
1058,268,1.0763542587293506,0.00015846599853830412,0.1724100112915039,True
1059,66,0.9078546421647746,0.00013263999790069647,0.17234134674072266,True
1060,269,2.8803954400788676,0.0001369480014545843,0.1724863052368164,True
1061,282,2.8840960042050345,0.00013118200149619952,0.1723947525024414,True
1062,243,2.032561375529197,0.00013309399946592748,0.17240238189697266,True
1063,196,1.8759546796353863,0.00013257500177132897,0.17235660552978516,True
1064,226,4.347306771492569,0.00013640600081998855,0.1724710464477539,True
1065,145,12.255781802673312,0.0001342960022157058,0.17243289947509766,True
1066,135,1.9252121741959323,0.00013833100092597306,0.17246341705322266,True
1067,245,2.8685097202972716,0.000175509001564933,0.17246341705322266,True
1068,274,2.5867923145090344,0.000147257000207901,0.17252445220947266,True
1069,135,1.3090442033178065,0.00015249799980665557,0.17235660552978516,True
1070,282,3.0025194173630623,0.00014028599980520085,0.1725320816040039,True
1071,150,2.7002005947799845,0.00015522099783993326,0.17246341705322266,True
1072,125,4.827213688100092,0.00015496099877054803,0.17243289947509766,True
1073,151,2.5239398668861828,0.00013520699940272607,0.17241764068603516,True
1074,38,2.2945966899669825,0.00013632099944516085,0.1724252700805664,True
1075,144,10.047392487335484,0.00014526900122291408,0.1725931167602539,True
1076,151,4.929137543999083,0.00013791300079901703,0.1724863052368164,True
1077,98,1.5942055686273622,0.00013493699952960014,0.1724405288696289,True
1078,169,3.323423339934523,0.0001425360023858957,0.1725015640258789,True
1079,254,11.542361485172156,0.00014350099809234962,0.17261600494384766,True
1080,242,3.1264492341609897,0.00014837399794487283,0.17246341705322266,True
1081,150,5.799597024673327,0.0001360179994662758,0.17238712310791016,True
1082,133,2.6400949109725933,0.00015932699898257852,0.1724710464477539,True
1083,273,3.359915641092459,0.00013619499804917723,0.17244815826416016,True
1084,268,2.428823450272392,0.00014634299805038609,0.1724100112915039,True
1085,216,3.0685838258768587,0.00013987299826112576,0.17249393463134766,True
1086,118,2.3595650682329365,0.00013612700058729388,0.1724405288696289,True
1087,149,2.4546000061785738,0.00013987300189910457,0.17247867584228516,True
1088,246,1.98230049385956,0.00014047700096853077,0.1725015640258789,True
1089,118,2.9961996773725526,0.00013590399976237677,0.17237186431884766,True
1090,51,3.284282369769739,0.00016461999985040165,0.17250919342041016,True
1091,82,2.309788154959402,0.0001368769990222063,0.1724100112915039,True
1092,75,2.194912255406556,0.00013134300024830736,0.1723489761352539,True
1093,196,3.0305474628923963,0.00013874599972041324,0.17246341705322266,True
1094,106,15.80928104762806,0.00014598900088458322,0.17261600494384766,True
1095,24,1.2907775363302694,0.0001360749993182253,0.1724252700805664,True
1096,24,2.7442881727407125,0.0001474009986850433,0.17237186431884766,True
1097,135,2.433019832580461,0.00013107099948683754,0.17235660552978516,True
1098,161,2.215543338009707,0.00013892799688619561,0.1724252700805664,True
1099,92,5.250408901988541,0.00013579799997387454,0.1723489761352539,True
1100,38,1.7671598495841028,0.00015320000238716602,0.17235660552978516,True
1101,255,2.9424634356802537,0.00014239300071494654,0.17246341705322266,True
1102,268,3.7513085713910668,0.00014811900109634735,0.1724557876586914,True
1103,76,1.9138362041828674,0.0001398979984514881,0.1724100112915039,True
1104,282,2.7990649995101164,0.00014528599785990082,0.17246341705322266,True
1105,166,0.9314860882273722,0.0001387169977533631,0.1724100112915039,True
1106,127,2.4225568314423978,0.0001311980013269931,0.17235660552978516,True
1107,150,3.829664919984996,0.0001364210002066102,0.1724710464477539,True
1108,342,31.88503635409304,0.00014321599883260205,0.1725778579711914,False
1109,129,2.624402767666618,0.0001377259977743961,0.1724557876586914,True
1110,65,1.6077567890453222,0.00015228200209094211,0.1724100112915039,True
1111,118,1.8420412892003393,0.0001456099998904392,0.1724405288696289,True
1112,129,3.212666190554231,0.0001415210026607383,0.1725015640258789,True
1113,151,2.3025387093885197,0.00015144000280997716,0.17249393463134766,True
1114,75,3.9325362962934776,0.00015289300063159317,0.17246341705322266,True
1115,149,3.652087254693518,0.00019219199748476967,0.17255496978759766,True
1116,82,2.662287764721203,0.00013476700041792355,0.1723489761352539,True
1117,133,2.2929036108605367,0.0001422159984940663,0.17247867584228516,True
1118,245,17.016411986515713,0.00013913899965700693,0.1724557876586914,True
1119,247,2.256548674300593,0.0001446940004825592,0.1724863052368164,True
1120,242,1.341583820213825,0.00021436300085042603,0.1723642349243164,True
1121,98,2.485523896771793,0.0001437780010746792,0.17246341705322266,True
1122,38,2.7702949737362035,0.00013505600145435892,0.17240238189697266,True
1123,269,5.90267347944757,0.00013868600217392668,0.1724863052368164,True
1124,76,1.7819892249129234,0.00013135100016370416,0.17234134674072266,True
1125,75,2.2046915935032954,0.0001493480012868531,0.1724252700805664,True
1126,64,2.5714696852498915,0.0001407490017300006,0.1723642349243164,True
1127,273,4.951107349376003,0.00015351399997598492,0.1725168228149414,True
1128,254,19.768001428910253,0.00015472199811483733,0.17255496978759766,True
1129,65,4.168975182253506,0.00013451999984681606,0.17241764068603516,True
1130,242,3.1867070533855197,0.00013847500304109417,0.17247867584228516,True
1131,269,2.170619317036403,0.00013818700244883075,0.1724252700805664,True
1132,144,6.064941952293038,0.00016254300135187805,0.1725320816040039,True
1133,38,2.1924385362332997,0.00013661000048159622,0.1723947525024414,True
1134,118,1.2184955287617072,0.00014479399760602973,0.1724557876586914,True
1135,243,6.247016809750139,0.00014170799840940163,0.17253971099853516,True
1136,268,2.1117260219754908,0.00013230700278654695,0.17237186431884766,True
1137,158,2.95745665490738,0.00014187000124366023,0.17244815826416016,True
1138,75,2.1030298262089766,0.00013526700058719143,0.1723794937133789,True
1139,158,2.615466035561376,0.00015997399896150455,0.1724557876586914,True
1140,133,2.720242810643568,0.00013178099834476598,0.1723794937133789,True
1141,151,2.9518220489888796,0.00014148700211080723,0.17252445220947266,True
1142,106,37.496956961219766,0.00014287299927673303,0.17260074615478516,True
1143,158,3.747027452652697,0.00013930999921285547,0.17249393463134766,True
1144,33,4.591821316734012,0.0001318869981332682,0.1723794937133789,True
1145,82,3.039745067765336,0.0001322110001638066,0.17238712310791016,True
1146,226,4.152247845778464,0.00014491999900201336,0.1725778579711914,True
1147,196,3.094868248585587,0.00012898800196126103,0.17228031158447266,True
1148,242,3.6087584999715867,0.0001358519984933082,0.1724557876586914,True
1149,245,3.2900179649317214,0.00015404799705720507,0.1725320816040039,True
1150,243,4.77862975582607,0.00014979100160417147,0.17249393463134766,True
1151,274,2.439316987662238,0.00014262800323194824,0.1725168228149414,True
1152,245,5.076627452798271,0.00014063100024941377,0.17241764068603516,True
1153,38,2.8203030198191748,0.00014227599967853166,0.17246341705322266,True
1154,106,30.41003145602184,0.00015071099915076047,0.17270755767822266,True
1155,33,3.266394391430845,0.0001394300015817862,0.17249393463134766,True
1156,76,2.0790173008702935,0.00013181100075598806,0.17235660552978516,True
1157,208,2.3765339421874496,0.00013691799904336222,0.1724863052368164,True
1158,82,3.2383871913948803,0.00017299400133197196,0.1724863052368164,True
1159,150,9.580448097685817,0.00014018400179338641,0.17250919342041016,True
1160,135,2.48592171421337,0.0001820960023906082,0.17250919342041016,True
1161,118,3.0178029550252523,0.0001407999989169184,0.17247867584228516,True
1162,271,3.3827373887803613,0.00013861100160283968,0.17243289947509766,True
1163,245,2.798935425248465,0.00014259599993238226,0.17243289947509766,True
1164,144,5.307547718909508,0.00016456999946967699,0.1724863052368164,True
1165,118,2.869998614878038,0.00013665499864146113,0.1724405288696289,True
1166,246,4.324069936000932,0.0001469550006731879,0.17258548736572266,True
1167,64,5.300266418808372,0.0001378820015816018,0.17243289947509766,True
1168,129,1.7732902484510276,0.0001324400000157766,0.1723794937133789,True
1169,66,3.4008017239494968,0.00015210599667625502,0.1724710464477539,True
1170,133,1.2805210616280562,0.00013165299969841726,0.1723947525024414,True
1171,24,2.1134786773923198,0.00013843600027030334,0.17241764068603516,True
1172,242,1.40261371460682,0.0001452510005037766,0.1724100112915039,True
1173,135,1.728648664860965,0.00013443300122162327,0.17240238189697266,True
1174,38,3.3296447998922862,0.00013610799942398444,0.1724405288696289,True
1175,282,2.2755217328993558,0.00015002700092736632,0.1724710464477539,True
1176,1,5.6179679793578625,0.00014565200035576709,0.17258548736572266,True
1177,8,4.055851611171418,0.00013451300037559122,0.17241764068603516,True
1178,268,2.892663856294205,0.0001328999969700817,0.1723947525024414,True
1179,196,18.173967970662673,0.0001481990002503153,0.1725931167602539,True
1180,92,4.280180585412195,0.00014038600056665018,0.1724100112915039,True
1181,169,13.163284125022466,0.00015298000289476477,0.17247867584228516,True
1182,245,2.0884358537778227,0.00013495500024873763,0.17244815826416016,True
1183,82,2.071413189507712,0.00014678200022899546,0.17238712310791016,True
1184,24,3.5472744042004885,0.00014680800086352974,0.1724557876586914,True
1185,106,24.418818482287666,0.00014614400060963817,0.1726083755493164,True
1186,65,4.111472720516721,0.0001369359997624997,0.17241764068603516,True
1187,127,3.659057511694777,0.00014675299826194532,0.17249393463134766,True
1188,143,2.310272907574926,0.0001368769990222063,0.17246341705322266,True
1189,82,8.71227850572867,0.0003407930016692262,0.17247867584228516,True
1190,169,6.092280912657796,0.0001561680001032073,0.17260074615478516,True
1191,483,5.737866659809093,0.000139903997478541,0.1724863052368164,False
1192,129,4.173926587454114,0.00014745700173079967,0.1724863052368164,True
1193,144,6.766662231218806,0.00013761300215264782,0.17246341705322266,True
1194,51,8.14671119333666,0.00014567399921361357,0.1725931167602539,True
1195,216,3.5529470898865774,0.00013958699855720624,0.17247867584228516,True
1196,38,2.7172939983721704,0.0001558439980726689,0.17247867584228516,True
1197,38,3.4389385757590456,0.00013599500016425736,0.1724557876586914,True
1198,151,13.435710120494123,0.00016274999870802276,0.1725625991821289,True
1199,82,3.505260961220084,0.00013790799857815728,0.1724863052368164,True
1200,208,3.393505508497019,0.00014471100075752474,0.17255496978759766,True
1201,166,1.5551029019347316,0.00014232000103220344,0.17246341705322266,True
1202,118,3.616043418769897,0.00014444000044022687,0.17247867584228516,True
1203,143,1.8278646627846944,0.00014556200039805844,0.17244815826416016,True
1204,245,2.8833209371375856,0.00014506200022879057,0.17258548736572266,True
1205,242,2.8665518198946143,0.00013342400052351877,0.17240238189697266,True
1206,24,1.6817810704984397,0.00014668400035589002,0.1724557876586914,True
1207,166,2.0973920140073843,0.00014141099745756947,0.17240238189697266,True
1208,151,1.7704748417652296,0.00013938699703430757,0.1725015640258789,True
1209,82,4.833023471461141,0.00018384799841442145,0.1725320816040039,True
1210,161,2.6647340114766367,0.00013820700041833334,0.1724710464477539,True
1211,497,12.134701249594796,0.00014225999984773807,0.1725015640258789,False
1212,125,5.041241227483148,0.0001418899992131628,0.1725168228149414,True
1213,216,2.6017594432302493,0.000152442000398878,0.17247867584228516,True
1214,242,1.749395521543864,0.00014327300232253037,0.1724252700805664,True
1215,82,1.9929895609792059,0.00013515600221580826,0.17241764068603516,True
1216,98,3.4338323892033045,0.00014185200052452274,0.1725778579711914,True
1217,187,5.501403395722791,0.00015476400221814401,0.17250919342041016,True
1218,187,1.8743699902358397,0.00013877199671696872,0.17249393463134766,True
1219,106,23.882493807709906,0.0001443959990865551,0.17258548736572266,True
1220,143,0.7637597156566114,0.00013094499809085391,0.17235660552978516,True
1221,483,15.0931151351102,0.00014684800044051372,0.1724557876586914,False
1222,10,1.9381743120286496,0.00013378999938140623,0.17237186431884766,True
1223,269,2.680142497874911,0.0001371200014546048,0.1724710464477539,True
1224,82,3.0662097347277975,0.0001531449997855816,0.17247867584228516,True
1225,135,1.6966553281088381,0.00013577599747804925,0.1723947525024414,True
1226,118,2.359413206588601,0.00013407799997366965,0.17238712310791016,True
1227,98,4.450202360843543,0.00014062300033401698,0.17250919342041016,True
1228,132,1.8339522026640502,0.00013502600268111564,0.17241764068603516,True
1229,158,3.9768681344540515,0.00013826400027028285,0.1725015640258789,True
1230,133,1.333711113904596,0.00013462900096783414,0.17244815826416016,True
1231,151,2.2797185676273033,0.0001671150021138601,0.17247867584228516,True
1232,282,14.609656624861403,0.00014487099906546064,0.1725625991821289,True
1233,208,5.896884970108649,0.00014735899821971543,0.1724863052368164,True
1234,144,3.2294566553763184,0.0001524740000604652,0.17249393463134766,True
1235,118,3.2271981016536384,0.0001392840022163,0.1723947525024414,True
1236,242,2.847273764084699,0.00015164899741648696,0.17240238189697266,True
1237,144,2.997931161773642,0.00015085199993336573,0.17253971099853516,True
1238,226,1.7935484636647216,0.0001564029989822302,0.1723947525024414,True
1239,242,2.5504976034481164,0.00029724799969699234,0.1725168228149414,True
1240,161,1.3541995157031832,0.0001429900003131479,0.17246341705322266,True
1241,135,1.525348622783017,0.00015335300122387707,0.1723947525024414,True
1242,274,2.8777805494816073,0.00013369099906412885,0.17240238189697266,True
1243,196,8.268109508172575,0.0001403800015395973,0.17247867584228516,True
1244,169,2.427661416517989,0.00013675599984708242,0.1724405288696289,True
1245,75,4.267521236947472,0.00013259899787954055,0.17237186431884766,True
1246,82,2.2587601889822784,0.00013147999925422482,0.1723794937133789,True
1247,82,1.68231285106858,0.0001317610003752634,0.17237186431884766,True
1248,1,5.465456179521539,0.00013705300079891458,0.17247867584228516,True
1249,106,4.379858726662361,0.00014090200056671165,0.1724863052368164,True
1250,1,6.765143793011799,0.00014634800027124584,0.17258548736572266,True
1251,169,2.670423500880211,0.00013731000217376277,0.17241764068603516,True
1252,187,2.819959155976999,0.00014465099957305938,0.1725320816040039,True
1253,124,3.314947932517535,0.00013491299978340976,0.1724100112915039,True
1254,158,3.8795615125814513,0.00015842200082261115,0.17252445220947266,True
1255,144,30.85497378470612,0.00014908100274624303,0.1725168228149414,True
1256,133,3.790979017976634,0.00014743400242878124,0.17244815826416016,True
1257,274,2.6015370282832944,0.00013546599802793935,0.17244815826416016,True
1258,242,3.3344433049502973,0.00014983700020820834,0.17249393463134766,True
1259,271,3.4001269005996857,0.0001352560029772576,0.17244815826416016,True
1260,161,2.988347542863114,0.00014954499783925712,0.17252445220947266,True
1261,135,2.9182450537658022,0.00014140400162432343,0.1725320816040039,True
1262,133,1.9892699819289026,0.00013678100003744476,0.17241764068603516,True
1263,125,5.963115426335784,0.00014645099872723222,0.17246341705322266,True
1264,273,2.4526153519239475,0.0001351430000795517,0.1724252700805664,True
1265,158,6.321766016696232,0.00015164000069489703,0.17253971099853516,True
1266,65,3.154220082920517,0.00013543299792218022,0.17243289947509766,True
1267,243,6.3753807484512865,0.00014065700088394806,0.1725320816040039,True
1268,132,1.588879955337999,0.00013798199870507233,0.17246341705322266,True
1269,118,3.433369433644648,0.0001407410018146038,0.1724710464477539,True
1270,65,4.5377190641139675,0.00013357599891605787,0.17238712310791016,True
1271,51,5.1186018392248025,0.00014117400132818148,0.17253971099853516,True
1272,158,3.107899067804145,0.00014401799853658304,0.1724405288696289,True
1273,166,2.0449210259935655,0.0001382789996569045,0.1724252700805664,True
1274,24,1.80788784512157,0.00013870499969925731,0.1724405288696289,True
1275,1,6.418696891736868,0.0001424389993189834,0.1724252700805664,True
1276,226,3.202074445328877,0.00013489299817592837,0.1724405288696289,True
1277,98,2.5682478002647864,0.00015330399764934555,0.17258548736572266,True
1278,150,5.460413027257409,0.0001426820017513819,0.1723642349243164,True
1279,274,2.9979854953833818,0.00013309800124261528,0.17237186431884766,True
1280,145,9.734801177201195,0.00014948600073694251,0.1725625991821289,True
1281,274,1.8115537560058912,0.0001450950003345497,0.1724557876586914,True
1282,226,1.8334581094919193,0.00013869500253349543,0.1725168228149414,True
1283,130,9.754364954127878,0.00013798999862046912,0.1724252700805664,True
1284,98,3.1365964597577185,0.0001451579992135521,0.1725931167602539,True
1285,82,1.8630857015990405,0.00014419099898077548,0.1724405288696289,True
1286,64,11.531930759514674,0.00014177699995343573,0.17252445220947266,True
1287,118,2.5956896923316872,0.0001384030001645442,0.1724252700805664,True
1288,98,4.893344662425926,0.00014124600056675263,0.17253971099853516,True
1289,65,9.075917576046402,0.0001405380025971681,0.17249393463134766,True
1290,129,3.2709265499756897,0.00013759300054516643,0.17241764068603516,True
1291,66,1.8922062765222973,0.0001357100009045098,0.1724405288696289,True
1292,161,3.0181988478696153,0.00014018699948792346,0.17247867584228516,True
1293,215,24.531184786828117,0.00014885300333844498,0.17263126373291016,True
1294,64,3.9085821240665686,0.00014561600255547091,0.17244815826416016,True
1295,144,2.1481950035050534,0.000145804002386285,0.1725625991821289,True
1296,33,4.035167585250332,0.00013439000031212345,0.1724100112915039,True
1297,133,1.8658632062997376,0.00014411099982680753,0.1724100112915039,True
1298,38,2.5372600729416614,0.00013939199925516732,0.17244815826416016,True
1299,226,2.859116457731883,0.00013787500211037695,0.1724710464477539,True
1300,129,2.0277810137937755,0.0001359489979222417,0.1724100112915039,True
1301,144,10.080838738902433,0.0001664060000621248,0.1726083755493164,True
1302,144,3.413445046341627,0.00015856800018809736,0.17247867584228516,True
1303,161,2.608635668644023,0.0001429229996574577,0.17252445220947266,True
1304,151,2.584616105768987,0.00014063400158192962,0.17238712310791016,True
1305,75,3.624687441106062,0.00013509299969882704,0.1723947525024414,True
1306,76,2.335517254604472,0.00013707499965676107,0.1723794937133789,True
1307,106,23.41920871792424,0.0001445319976483006,0.1726083755493164,True
1308,64,2.9673164218698282,0.0001384150018566288,0.1724557876586914,True
1309,118,1.7216439021705783,0.0001443880028091371,0.1724557876586914,True
1310,161,2.094374203926022,0.00013815299826092087,0.1724557876586914,True
1311,187,11.50780607463915,0.0001365690004604403,0.1724863052368164,True
1312,161,2.047666097837735,0.00014219000149751082,0.1724405288696289,True
1313,255,2.230305171687721,0.00015047900160425343,0.1724863052368164,True
1314,82,3.3077647128302674,0.00015189199984888546,0.1724863052368164,True
1315,135,1.962365008679508,0.00014760100020794198,0.17241764068603516,True
1316,151,3.8133075147118296,0.00014806400213274173,0.1725168228149414,True
1317,151,1.9046336009419207,0.00013887400200474076,0.1723794937133789,True
1318,65,3.834944617063758,0.00014473600094788708,0.17249393463134766,True
1319,66,7.321579785403518,0.00014513199857901782,0.1724710464477539,True
1320,66,3.607579878044762,0.00018667699987418018,0.17244815826416016,True
1321,242,1.929147320575328,0.0001519190009275917,0.1723947525024414,True
1322,151,2.091761468508105,0.00013976400077808648,0.1724405288696289,True
1323,65,3.6138438030257483,0.00014014599946676753,0.17240238189697266,True
1324,132,2.4198625705849954,0.00015039499703561887,0.17243289947509766,True
1325,75,4.04037374759226,0.00015265800175257027,0.17249393463134766,True
1326,151,3.394873807335953,0.0001389499993820209,0.17246341705322266,True
1327,98,3.1521034012266997,0.0001440070009266492,0.1725778579711914,True
1328,10,3.976394204338236,0.0001723929999570828,0.17252445220947266,True
1329,273,3.404664845632974,0.00013473600120050833,0.1724252700805664,True
1330,24,1.4060719823217829,0.00013558000136981718,0.1724100112915039,True
1331,106,21.685587389781286,0.0001412780002283398,0.17257022857666016,True
1332,82,3.4468098011711144,0.00013269200280774385,0.17231082916259766,True
1333,118,2.221877081799389,0.00013667600069311447,0.17246341705322266,True
1334,247,1.9666623024104544,0.00014726399967912585,0.1725168228149414,True
1335,133,2.201191576211832,0.0001353350016870536,0.17244815826416016,True
1336,82,2.4698290164126546,0.00013590600065072067,0.1724252700805664,True
1337,247,3.816547833133935,0.0001399669999955222,0.17252445220947266,True
1338,216,2.838570766260204,0.0001333030013483949,0.17237186431884766,True
1339,38,2.1633686303210733,0.00014015100168762729,0.17241764068603516,True
1340,151,2.4650744161911744,0.0001389559984090738,0.1724252700805664,True
1341,124,7.099022503006077,0.0001591260006534867,0.1724863052368164,True
1342,282,3.842029145905142,0.0001386539988743607,0.17244815826416016,True
1343,76,2.407107227920775,0.00013363400285015814,0.1723947525024414,True
1344,255,1.8572178925618381,0.00014504999853670597,0.1725015640258789,True
1345,64,2.6209178133522206,0.0001453259974368848,0.17246341705322266,True
1346,76,1.617705636887261,0.00013545599722419865,0.1723489761352539,True
1347,98,2.2911749889459743,0.00013506600225809962,0.17244815826416016,True
1348,271,6.479728414055786,0.0001575660025991965,0.1725015640258789,True
1349,118,2.6400351599831797,0.00014465400090557523,0.17249393463134766,True
1350,125,3.8517644677158565,0.00013610599853564054,0.1724100112915039,True
1351,135,1.537235796022058,0.00013200900139054283,0.1723642349243164,True
1352,144,6.407387499609473,0.00015251199874910526,0.1725625991821289,True
1353,135,1.6462336269847067,0.0001425180016667582,0.1723794937133789,True
1354,66,2.378597769827282,0.00013722600124310702,0.1724710464477539,True
1355,24,3.1255289419493373,0.0001378639972244855,0.17249393463134766,True
1356,133,1.3533415503269715,0.00013286600005812943,0.17240238189697266,True
1357,274,1.7738074181331271,0.00013657800082000904,0.17241764068603516,True
1358,38,1.958304496214552,0.0001665560012042988,0.1724557876586914,True
1359,144,3.47267317649154,0.00013598299847217277,0.17247867584228516,True
1360,271,3.675529290006326,0.000141385000461014,0.17253971099853516,True
1361,66,2.3953985130461164,0.00013675799709744751,0.1724710464477539,True
1362,106,19.107812604166256,0.00015645900202798657,0.17263126373291016,True
1363,33,5.702081270455577,0.00013846399815520272,0.1724863052368164,True
1364,75,3.981336586668684,0.0001312749991484452,0.17238712310791016,True
1365,282,2.7914432471783317,0.0001384800016239751,0.1724863052368164,True
1366,246,2.2472453813768682,0.00013622600090457126,0.17244815826416016,True
1367,76,2.308364426286075,0.00013647299783769995,0.1724252700805664,True
1368,269,7.912729050140463,0.0003087369987042621,0.1725320816040039,True
1369,51,3.2745545541388767,0.00014073399870540015,0.1725015640258789,True
1370,95,27.899655273630422,0.0001401899971824605,0.17250919342041016,True
1371,132,1.979174923068225,0.00033291999716311693,0.17246341705322266,True
1372,187,3.3788229340290687,0.0001460209969081916,0.17257022857666016,True
1373,66,3.5061186433830214,0.00013552000018535182,0.17241764068603516,True
1374,65,3.815109431461122,0.00014017300054547377,0.17247867584228516,True
1375,271,1.7302422851685515,0.00013552499876823276,0.1723794937133789,True
1376,242,2.1117182595978887,0.0001377810003759805,0.17247867584228516,True
1377,76,3.712499622854074,0.00013623800259665586,0.17244815826416016,True
1378,268,1.0309812329665096,0.00013338899952941574,0.17235660552978516,True
1379,483,10.0566179455879,0.00014862799798720516,0.17253971099853516,False
1380,133,1.8122976357775458,0.00014453699986916035,0.1724252700805664,True
1381,1,18.306855641791923,0.00014585200187866576,0.1726083755493164,True
1382,226,3.9336678473602387,0.00013964399840915576,0.1725015640258789,True
1383,247,8.235564258090342,0.00014235100024961866,0.17257022857666016,True
1384,135,3.7523794868253137,0.00015084600090631284,0.17250919342041016,True
1385,245,4.267576304161606,0.00013659300020663068,0.17244815826416016,True
1386,144,16.576958755270006,0.00014409700088435784,0.1725473403930664,True
1387,269,3.454300264417138,0.00013753000166616403,0.1724557876586914,True
1388,144,9.981370358274077,0.00016614500054856762,0.17260074615478516,True
1389,129,1.4262337981534219,0.00014266400103224441,0.17250919342041016,True
1390,135,1.72711927053187,0.0001339070004178211,0.1723947525024414,True
1391,242,2.9115536350682256,0.00013258500257506967,0.17238712310791016,True
1392,145,52.2641762043633,0.00015326300126616843,0.17260074615478516,True
1393,226,3.4414450779926398,0.00017536800078232773,0.17247867584228516,True
1394,108,1.8921664742069066,0.00014762299906578846,0.17234134674072266,True
1395,242,2.8722781992954953,0.00013569499787990935,0.17241764068603516,True
1396,144,2.4733134138265234,0.00014877700232318603,0.17244815826416016,True
1397,166,1.6192405568448236,0.00013842599946656264,0.1724405288696289,True
1398,82,4.804896321390432,0.00013663900244864635,0.17241764068603516,True
1399,65,4.207315318458594,0.00013759500143351033,0.17246341705322266,True
1400,133,1.3630843185163375,0.0001348330006294418,0.17241764068603516,True
1401,271,3.245903798297265,0.0001321970012213569,0.1723947525024414,True
1402,106,10.970084419174311,0.00014051899779587984,0.1725015640258789,True
1403,118,3.353126787450848,0.00014634000035584904,0.1723947525024414,True
1404,98,2.3889843984917993,0.00013979599680169486,0.1725015640258789,True
1405,161,4.82776222622906,0.0001416039995092433,0.1724557876586914,True
1406,125,5.246638961164208,0.00014718699821969494,0.17244815826416016,True
1407,65,1.2471240605405796,0.00013144799959263764,0.17237186431884766,True
1408,133,1.4948246279029191,0.00014015499982633628,0.17247867584228516,True
1409,245,3.4949060317321843,0.00013678100003744476,0.17241764068603516,True
1410,226,3.2158609303461025,0.00014862900206935592,0.17240238189697266,True
1411,133,1.0260780993139635,0.0001464119995944202,0.17234134674072266,True
1412,1,7.871965275165732,0.00014454100164584816,0.1726236343383789,True
1413,226,0.7914357687461693,0.0001274210007977672,0.17228031158447266,True
1414,33,14.390944748151068,0.00013507300172932446,0.1724863052368164,True
1415,124,4.852870450818837,0.0001595270005054772,0.1725473403930664,True
1416,98,2.619472081833177,0.00014323199866339564,0.1725168228149414,True
1417,118,2.2990407826743944,0.00014302799900178798,0.1724863052368164,True
1418,38,0.6929937888675309,0.00013403499906416982,0.1723489761352539,True
1419,98,2.9301226773671716,0.00013838499944540672,0.17246341705322266,True
1420,166,2.342494815952054,0.00013686400052392855,0.17243289947509766,True
1421,151,3.798183438980756,0.00013626000145450234,0.1724252700805664,True
1422,82,2.9089389616628454,0.0001364210002066102,0.1724252700805664,True
1423,66,2.4773564345848067,0.00013679900075658225,0.1724252700805664,True
1424,24,3.828784670496825,0.00013788899741484784,0.1724252700805664,True
1425,271,3.3917580724201914,0.000149661998875672,0.1725168228149414,True
1426,143,1.7463441156419768,0.00013170999955036677,0.1723642349243164,True
1427,65,2.5836945699011435,0.00015408599938382395,0.1724405288696289,True
1428,161,3.4856189579714023,0.00015419099872815423,0.17246341705322266,True
1429,161,2.129964581181644,0.0001449530027457513,0.17247867584228516,True
1430,135,1.2917288501212443,0.00013476499952957965,0.17237186431884766,True
1431,133,1.9762705352309848,0.00013615499847219326,0.1723947525024414,True
1432,208,3.2147707544008246,0.00015544699999736622,0.1725015640258789,True
1433,242,2.2250991265090967,0.0001420699991285801,0.17250919342041016,True
1434,98,1.486055567182883,0.00014079899847274646,0.17244815826416016,True
1435,271,4.306227102509646,0.00013613999908557162,0.17246341705322266,True
1436,129,2.311349415538602,0.0001360239984933287,0.1724100112915039,True
1437,98,1.943298086412485,0.00013495599705493078,0.1724100112915039,True
1438,151,1.457664475148969,0.00013621999823953956,0.17244815826416016,True
1439,196,2.5913623154485017,0.00013536099868360907,0.17240238189697266,True
1440,127,4.6725993993008865,0.00013823399785906076,0.17244815826416016,True
1441,85,3.4307262507523797,0.0002788720012176782,0.17246341705322266,True
1442,132,2.362145389927678,0.00013745099931838922,0.1724863052368164,True
1443,169,1.7184800482996727,0.00013498800035449676,0.1724100112915039,True
1444,76,3.7814196787882763,0.00015691099906689487,0.1724557876586914,True
1445,144,5.796108763642836,0.00013885199950891547,0.1724863052368164,True
1446,161,1.3298279276486145,0.00013633100024890155,0.17244815826416016,True
1447,132,6.077632624647369,0.00027768599829869345,0.17260074615478516,True
1448,98,5.2043485695417315,0.00015354900097008795,0.1725473403930664,True
1449,282,2.759231663258139,0.00014389300122275017,0.1724710464477539,True
1450,92,8.109642451162403,0.00014744600048288703,0.1724863052368164,True
1451,150,6.617648249860662,0.00018684600217966363,0.17257022857666016,True
1452,271,2.3565126805352428,0.0006344979992718436,0.17240238189697266,True
1453,161,2.7050711123935796,0.00016346499978681095,0.1724863052368164,True
1454,98,1.5534059319860622,0.00016472599963890389,0.1723947525024414,True
1455,269,3.161627968405564,0.00014288899910752662,0.1724557876586914,True
1456,169,3.4801566943518125,0.00014908400044078007,0.17240238189697266,True
1457,144,11.646081145010749,0.00014430399824050255,0.1726236343383789,True
1458,66,2.8184762403966497,0.00013851099720341153,0.17244815826416016,True
1459,282,3.893587416789212,0.00013496999963535927,0.17237186431884766,True
1460,135,3.878138339469658,0.00014633599857916124,0.17249393463134766,True
1461,268,1.984309837398069,0.0001462379987060558,0.17238712310791016,True
1462,151,5.514174038099869,0.0001443900000595022,0.1725778579711914,True
1463,242,1.1625045318963891,0.00014437299978453666,0.1724557876586914,True
1464,133,1.6341304004096804,0.0001335460001428146,0.17238712310791016,True
1465,282,1.9609611724541436,0.00020482499894569628,0.17244815826416016,True
1466,24,1.6959206978542267,0.00014510999972117133,0.17238712310791016,True
1467,33,3.480028540585087,0.0001394280006934423,0.1723947525024414,True
1468,242,2.078725053894145,0.0001816969997889828,0.1723337173461914,True
1469,135,1.9296041974052893,0.0001387250013067387,0.17247867584228516,True
1470,246,1.9811238858029836,0.00013939600103185512,0.17246341705322266,True
1471,255,3.570542631994069,0.00013601500177173875,0.17246341705322266,True
1472,208,3.263615552129568,0.00015569500101264566,0.1724863052368164,True
1473,271,2.0300249927018545,0.00015439400158356875,0.17237186431884766,True
1474,166,1.0540368291901483,0.00013140099690645002,0.17234134674072266,True
1475,118,2.4655949250746945,0.00014129900227999315,0.17249393463134766,True
1476,273,3.860493880574764,0.0001543789985589683,0.17264652252197266,True
1477,269,2.0470938916864214,0.00014824100071564317,0.17240238189697266,True
1478,75,2.1517802466620504,0.0001352500003122259,0.17240238189697266,True
1479,242,2.1222033725583715,0.0001315099980274681,0.1723642349243164,True
1480,169,1.536070978766056,0.00015770900063216686,0.1724557876586914,True
1481,65,6.297159966504588,0.0001381129986839369,0.17249393463134766,True
1482,133,2.2092405113952664,0.00013771899830317125,0.1724405288696289,True
1483,242,2.4187458630894465,0.000135165002575377,0.1724252700805664,True
1484,187,2.654148744964057,0.0001543159996799659,0.17250919342041016,True
1485,242,3.79597490648546,0.0001530600020487327,0.17241764068603516,True
1486,144,10.582031288612765,0.00014892299805069342,0.1726694107055664,True
1487,269,3.35467627390182,0.00014580799688701518,0.1723642349243164,True
1488,161,1.6083815160051689,0.00013998600115883164,0.17246341705322266,True
1489,166,4.130643486682893,0.00013459000183502212,0.1724405288696289,True
1490,226,3.870746913632094,0.0001444020017515868,0.1725168228149414,True
1491,118,2.7101170067841314,0.0001417559979017824,0.17249393463134766,True
1492,1,2.9753856783314934,0.00014468500012299046,0.1725778579711914,True
1493,130,9.295659492290097,0.00013830499665345997,0.17249393463134766,True
1494,98,14.606904796410515,0.00014746500164619647,0.17253971099853516,True
1495,118,1.7117087423471096,0.00013652499910676852,0.17241764068603516,True
1496,127,16.097005548127022,0.00014723600179422647,0.17260074615478516,True
1497,226,2.758545985488243,0.0001374220009893179,0.17238712310791016,True
1498,242,3.140580397904082,0.00016407099974458106,0.1724863052368164,True
1499,24,2.279897121029691,0.0001822140002332162,0.17244815826416016,True
1500,33,8.185360803563574,0.000150839001435088,0.1724252700805664,True
1501,226,3.516992386235541,0.0001513050010544248,0.17243289947509766,True
1502,133,1.0996988805491066,0.0001335359993390739,0.17234134674072266,True
1503,226,2.694210618778624,0.0001415369988535531,0.1723489761352539,True
1504,274,1.6538541548960592,0.00013361600213102065,0.1723489761352539,True
1505,269,3.843534454088741,0.0001376370018988382,0.17244815826416016,True
1506,187,2.8329753718403454,0.0001471010000386741,0.17253971099853516,True
1507,64,2.725985987564208,0.0001365489988529589,0.17234134674072266,True
1508,38,2.2035374066800624,0.00015984200217644684,0.1724863052368164,True
1509,33,4.3232077108414835,0.00016247199891950004,0.1724863052368164,True
1510,76,2.8400804081629323,0.00013227899762568995,0.1723642349243164,True
1511,133,2.5652504257624162,0.00015522299872827716,0.17246341705322266,True
1512,245,2.5200231739160537,0.00013584499902208336,0.17240238189697266,True
1513,273,3.2792016947889366,0.00014157400073600002,0.17255496978759766,True
1514,468,37.24988066541297,0.00015090099986991845,0.17272281646728516,False
1515,82,2.6440921184205597,0.00014111700147623196,0.17253971099853516,True
1516,271,2.4411812340775834,0.0001419159998476971,0.17249393463134766,True
1517,274,2.1962635796387926,0.00014335500236484222,0.1723947525024414,True
1518,118,2.3947239463150964,0.0001354020023427438,0.1723947525024414,True
1519,66,23.741126783823297,0.00013334899995243177,0.17237186431884766,True
1520,135,2.656143875485154,0.00013792100071441382,0.17246341705322266,True
1521,158,3.630989218137382,0.00013853599739377387,0.17247867584228516,True
1522,135,1.913501360767096,0.00014234099944587797,0.17244815826416016,True
1523,64,1.3042859217775162,0.00014520900003844872,0.1724405288696289,True
1524,161,1.7445047845222035,0.00015319900194299407,0.17240238189697266,True
1525,282,3.8104148086674834,0.0001905129975057207,0.1724863052368164,True
1526,169,2.488231239142031,0.00013783399845124222,0.17243289947509766,True
1527,161,1.8163549017633636,0.00013440299881040119,0.1724100112915039,True
1528,82,2.4814261429807583,0.0001358840017928742,0.17244815826416016,True
1529,75,6.2787566990738215,0.00014159900092636235,0.17252445220947266,True
1530,187,5.272062526408987,0.000141806998726679,0.1724863052368164,True
1531,149,3.3971967800911846,0.00014132499927654862,0.17234134674072266,True
1532,282,1.4531705039243752,0.00013363600010052323,0.1723794937133789,True
1533,151,2.2879821863312038,0.00013861000115866773,0.1725015640258789,True
1534,255,2.421206822587245,0.00013867999950889498,0.17249393463134766,True
1535,75,1.1205329449656938,0.00013220400069258176,0.17237186431884766,True
1536,268,3.8972603888960013,0.0001392740014125593,0.1724863052368164,True
1537,273,2.982958663339573,0.00014121800268185325,0.17252445220947266,True
1538,51,4.773872502647118,0.00014325300071504898,0.17257022857666016,True
1539,13,32.008152384692906,0.00017501199909020215,0.1725931167602539,True
1540,242,2.372960147016956,0.00014806300168856978,0.17247867584228516,True
1541,143,2.987801201202433,0.00013214499995228834,0.17240238189697266,True
1542,38,1.6384224707171995,0.00013779799701296724,0.17238712310791016,True
1543,158,5.3942330563016245,0.00014195900075719692,0.17252445220947266,True
1544,129,2.0154319000015803,0.0001384089991915971,0.1724557876586914,True
1545,151,1.7419290356506474,0.0001364780000585597,0.17243289947509766,True
1546,143,2.2961767398662047,0.00013661900084116496,0.1724557876586914,True
1547,242,3.60489730577736,0.000140203999762889,0.17234134674072266,True
1548,124,3.4519600557574304,0.00014793499940424226,0.17250919342041016,True
1549,145,14.475141654071729,0.00013890999980503693,0.1725015640258789,True
1550,124,4.275907642819176,0.00014056299914955162,0.1725168228149414,True
1551,65,2.9840597378878253,0.00013539900101022795,0.1723947525024414,True
1552,282,3.782378010002108,0.00015491699741687626,0.17255496978759766,True
1553,85,3.894781458954545,0.00014414800170925446,0.1725473403930664,True
1554,98,6.443990425763007,0.0001512300004833378,0.1726083755493164,True
1555,118,2.8281255898166293,0.00013616900105262175,0.17243289947509766,True
1556,106,16.58355097649504,0.00015016999896033667,0.1726388931274414,True
1557,158,2.4453630506075266,0.0001406800001859665,0.17250919342041016,True
1558,247,3.062626764619828,0.00013512099758372642,0.1724405288696289,True
1559,135,2.8206871627803194,0.0001368689991068095,0.1724405288696289,True
1560,483,10.389787776626227,0.0001401980007358361,0.1725015640258789,False
1561,151,2.8309107259800714,0.000139212999783922,0.17244815826416016,True
1562,24,4.62943855034132,0.00015297400022973306,0.1725320816040039,True
1563,166,1.9601743726811478,0.00014173499948810786,0.17243289947509766,True
1564,271,1.938866310723574,0.00014786199972149916,0.1723489761352539,True
1565,271,3.1255478593857964,0.0001394930004607886,0.1724252700805664,True
1566,242,1.3298157566477047,0.00013767199925496243,0.1723947525024414,True
1567,151,1.0694286391724594,0.0001440619998902548,0.1724100112915039,True
1568,106,4.622422119799575,0.0001426230010110885,0.17249393463134766,True
1569,10,3.0842068974264687,0.00014148900299915113,0.17246341705322266,True
1570,273,3.173770729940655,0.00015133999841054901,0.17246341705322266,True
1571,132,1.0505221963520504,0.0001379470013489481,0.1724405288696289,True
1572,242,3.502504424209798,0.00013251400014269166,0.17237186431884766,True
1573,151,2.5658104078302824,0.00013437599773169495,0.17243289947509766,True
1574,242,2.585497921534824,0.00014113699944573455,0.17247867584228516,True
1575,149,3.7617501780412663,0.000315484001475852,0.17244815826416016,True
1576,226,2.1929530589520603,0.00013739499991061166,0.1724100112915039,True
1577,254,10.883289639982443,0.00014216600175132044,0.1725778579711914,True
1578,208,2.3331103946117966,0.00014135799938230775,0.1724252700805664,True
1579,1,8.976125318779498,0.00015052599701448344,0.17252445220947266,True
1580,158,4.64632934768431,0.00015586899826303124,0.17266178131103516,True
1581,151,0.9944888656508079,0.00013523899906431325,0.1723642349243164,True
1582,38,1.4510400643949544,0.0001418110005033668,0.1724557876586914,True
1583,143,2.446674156690867,0.0001409780015819706,0.1724710464477539,True
1584,243,3.8747027317302942,0.0001528450011392124,0.17252445220947266,True
1585,282,2.1549093268565276,0.00014897999790264294,0.17250919342041016,True
1586,269,2.663965317239578,0.00013349700020626187,0.17240238189697266,True
1587,226,4.150336778967366,0.00013728699923376553,0.17246341705322266,True
1588,145,17.46494556523256,0.00013695499728783034,0.17243289947509766,True
1589,13,22.894385682440635,0.00016452500130981207,0.1725931167602539,True
1590,98,4.325374285713499,0.0001396689985995181,0.1725168228149414,True
1591,98,14.131336634165315,0.00014498699965770356,0.17260074615478516,True
1592,271,2.7726396839731127,0.00013595499694929458,0.17243289947509766,True
1593,144,2.2628511172592676,0.00014066500079934485,0.17253971099853516,True
1594,135,1.996992758596462,0.00014365700189955533,0.17241764068603516,True
1595,38,2.151336115043783,0.00014083799760555848,0.1724252700805664,True
1596,158,2.132511299669036,0.0001497370030847378,0.17249393463134766,True
1597,8,3.5180754933484204,0.00014055799692869186,0.1723489761352539,True
1598,125,3.1717084489693477,0.0001442419998056721,0.1724710464477539,True
1599,135,4.066028580981814,0.00014198999997461215,0.17247867584228516,True
1600,243,3.350908723530156,0.00014028200166649185,0.17249393463134766,True
1601,282,1.9240338746436272,0.0001419870022800751,0.17250919342041016,True
1602,255,2.2624915580892244,0.00014908700177329592,0.17246341705322266,True
1603,24,3.2987394551492715,0.00015216799874906428,0.17247867584228516,True
1604,187,2.6508233625483864,0.00015720299779786728,0.17250919342041016,True
1605,144,7.589627213885388,0.00014716700025019236,0.17253971099853516,True
1606,208,2.470315299863055,0.00015985799836926162,0.1724710464477539,True
1607,187,2.2631695886151904,0.00014187300257617608,0.17249393463134766,True
1608,151,2.2774273068378093,0.00013681599739356898,0.1724710464477539,True
1609,245,3.2596912832247122,0.00013337700147530995,0.17234134674072266,True
1610,161,2.1399604262165783,0.00014716499936184846,0.17244815826416016,True
1611,51,2.855127566301298,0.00013914800001657568,0.17243289947509766,True
1612,242,2.8827187827728937,0.0001396529987687245,0.1723947525024414,True
1613,242,1.8397806523227238,0.0001361069989798125,0.1724252700805664,True
1614,216,1.848126913679002,0.0001718139974400401,0.1724710464477539,True
1615,282,2.419529356156155,0.00013768799908575602,0.1724710464477539,True
1616,135,3.4160176055555134,0.00014542200005962513,0.17257022857666016,True
1617,10,2.5705823204838927,0.0001643050018174108,0.17234134674072266,True
1618,282,2.720083264642389,0.00013652000052388757,0.17240238189697266,True
1619,125,5.834169265287175,0.0001391159967170097,0.1725015640258789,True
1620,82,5.751343184746284,0.00013392000255407766,0.1724252700805664,True
1621,226,2.3439851693964586,0.00014631600060965866,0.1724100112915039,True
1622,33,7.034808329997649,0.0006068380025681108,0.17247867584228516,True
1623,208,3.155659696762046,0.00014725000073667616,0.1725320816040039,True
1624,38,2.1080071135408107,0.0001610630024515558,0.17243289947509766,True
1625,118,1.7562808928452738,0.00013323999883141369,0.1723947525024414,True
