Test Index,Train Index,Score,Computing Time (s),Space Usage (MB),Same Class
0,177,28.35205663838263,0.0001961250018212013,0.17208194732666016,True
1,183,7.993954490520654,0.00018879499839385971,0.1720743179321289,True
2,27,8.618995469616275,0.000192399002116872,0.17206668853759766,True
3,267,10.663496080750726,0.00019259299733676016,0.17205142974853516,True
4,230,12.459279492925825,0.00018718700084718876,0.1720743179321289,True
5,97,6.9884240432447005,0.00019684900325955823,0.17205142974853516,True
6,60,22.72776857969579,0.00018777999866870232,0.17206668853759766,True
7,263,7.935475399166335,0.0001964410002983641,0.1720590591430664,True
8,183,9.387532864230343,0.00019996799892396666,0.17206668853759766,True
9,234,12.46066060800411,0.0001834879985835869,0.17206668853759766,True
10,129,3.859269664375021,0.00018398800239083357,0.17205142974853516,True
11,26,11.972248664044852,0.0001959569999598898,0.1720743179321289,True
12,177,9.311873126333433,0.00018414299847790971,0.1720590591430664,True
13,263,6.29491736688516,0.0001966540003195405,0.17205142974853516,True
14,183,4.991181377153611,0.0001932179984578397,0.17205142974853516,True
15,238,10.72269996425771,0.00019513699953677133,0.17205142974853516,True
16,230,3.3082424348496686,0.0001932199993461836,0.17205142974853516,True
17,183,5.629566510038585,0.00019334500029799528,0.17205142974853516,True
18,270,4.808307778297259,0.00018260400247527286,0.17205142974853516,True
19,76,4.185061122403714,0.00019755199900828302,0.17205142974853516,True
20,183,2.1113449218115843,0.000183864998689387,0.17205142974853516,True
21,183,6.988489519375612,0.00018594900029711425,0.17205142974853516,True
22,230,4.440536678284118,0.00018706699847825803,0.17205142974853516,True
23,183,2.8855988532819086,0.0001926869990711566,0.17205142974853516,True
24,183,9.444447289345645,0.00020014400070067495,0.1720590591430664,True
25,77,28.346465760066987,0.0001844629987317603,0.17206668853759766,True
26,273,5.11971510934675,0.0001830260007409379,0.17205142974853516,True
27,150,42.0357999659063,0.0001876639980764594,0.1721048355102539,True
28,129,5.782036918647531,0.00018607700258144177,0.1720590591430664,True
29,230,1.803758930036753,0.00018707699928199872,0.17205142974853516,True
30,244,6.345814674436405,0.00018286699923919514,0.17205142974853516,True
31,230,5.615693118663795,0.00018239300334244035,0.17205142974853516,True
32,267,4.304574975103039,0.00018160499894293025,0.17205142974853516,True
33,17,12.286001633276914,0.00018880200150306337,0.17208194732666016,True
34,88,6.6217481803904805,0.00018888500198954716,0.17205142974853516,True
35,220,7.232502274978242,0.00020152600336587057,0.1720590591430664,True
36,234,3.3817115306421694,0.00018566899962024763,0.1720590591430664,True
37,234,3.915319643336539,0.0001907820005726535,0.17205142974853516,True
38,244,2.4147885287045705,0.00019189599697710946,0.17205142974853516,True
39,230,8.023244867393812,0.00019387499924050644,0.1720590591430664,True
40,77,14.875757173191321,0.00019397099822526798,0.17206668853759766,True
41,135,5.360065840534405,0.00018310499945073389,0.17205142974853516,True
42,17,8.010561108534793,0.00021109999943291768,0.17206668853759766,True
43,183,5.939676468725237,0.00019141099983244203,0.17205142974853516,True
44,165,6.7369638287801425,0.00019145800251862966,0.1720590591430664,True
45,135,5.36291191954681,0.00018315299894311465,0.17205142974853516,True
46,138,64.79073045547652,0.00019935500313295051,0.17220401763916016,True
47,176,32.08909663304334,0.0001862680001067929,0.1720743179321289,True
48,273,6.293118570725682,0.00018630100021255203,0.1720590591430664,True
49,136,5.670964302520739,0.00020561400015139952,0.1720590591430664,True
50,230,2.4122663844920993,0.00018763000116450712,0.17205142974853516,True
51,220,4.1777654801957445,0.00018524799816077575,0.1720590591430664,True
52,244,6.319999710676179,0.00018267099949298427,0.1720590591430664,True
53,230,4.129514034330776,0.00018328000078327022,0.17205142974853516,True
54,234,6.2935061062339415,0.00018436400205246173,0.17205142974853516,True
55,159,9.560961363410028,0.00018528999862610362,0.17206668853759766,True
56,143,5.624180956895479,0.0001825199979066383,0.17205142974853516,True
57,220,4.388722353046174,0.0001857979987107683,0.17205142974853516,True
58,183,5.069869831220645,0.00018658299813978374,0.17205142974853516,True
59,149,10.048438293603224,0.00020149400006630458,0.1720590591430664,True
60,143,3.6178243956560405,0.00019512599828885868,0.17205142974853516,True
61,17,2.478306057721034,0.00018773600095300935,0.1721353530883789,True
62,88,10.749748257716554,0.00020043199765495956,0.1720590591430664,True
63,230,3.3110600790917855,0.0001897610018204432,0.17205142974853516,True
64,149,5.814609917958932,0.000192707000678638,0.1720590591430664,True
65,237,8.745641066780724,0.00018612900021253154,0.1720590591430664,True
66,138,31.69909285590686,0.00019717100076377392,0.17211246490478516,True
67,143,6.365518378202546,0.00020186899928376079,0.17205142974853516,True
68,88,13.724484394348414,0.00021122500038472936,0.1720590591430664,True
69,183,4.693628367059673,0.00018713399913394824,0.17205142974853516,True
70,27,7.668808923865687,0.00019084000086877495,0.1720743179321289,True
71,97,7.400007360783128,0.0001968990000023041,0.17205142974853516,True
72,238,11.82867974931785,0.0001866689999587834,0.1720590591430664,True
73,273,9.00660542391769,0.00019545399845810607,0.17205142974853516,True
74,183,10.82018605534898,0.00035240599754615687,0.1720590591430664,True
75,238,5.058268452566857,0.00019170100131304935,0.17205142974853516,True
76,112,6.988851149643103,0.0001987569994525984,0.1720590591430664,True
77,234,5.187845331710793,0.00020073899941053241,0.1720590591430664,True
78,183,6.3659615225163675,0.00019286200040369295,0.17205142974853516,True
79,128,11.594571619945347,0.00018584300050861202,0.1720590591430664,True
80,82,6.359888664570482,0.0001956570013135206,0.17205142974853516,True
81,230,4.815755007461158,0.00018219699995825067,0.17205142974853516,True
82,230,7.99846919369052,0.00019233299826737493,0.1720590591430664,True
83,135,8.690698214032475,0.00018659600027604029,0.1720590591430664,True
84,177,21.322840527693156,0.00020705499991890974,0.1720743179321289,True
85,220,8.556737772391383,0.00018460199862602167,0.1720590591430664,True
86,273,25.15794558010238,0.00019759100177907385,0.1720743179321289,True
87,26,16.433184161072667,0.00019566000264603645,0.17209720611572266,True
88,149,1.6121618151674155,0.00019352200251887552,0.17205142974853516,True
89,177,29.93091657098882,0.00019722700017155148,0.1721048355102539,True
90,206,10.662354862075759,0.00020343700089142658,0.17206668853759766,True
91,64,7.162776483494458,0.0001850260014180094,0.1720590591430664,True
92,246,2.309239366992625,0.00019073100338573568,0.17205142974853516,True
93,177,37.8040333840442,0.0002165119985875208,0.1721048355102539,True
94,230,3.757173016913979,0.0002228679986728821,0.17205142974853516,True
95,267,7.648122666692948,0.00018506699780118652,0.1720743179321289,True
96,17,9.613815025051334,0.00019241900008637458,0.17214298248291016,True
97,26,10.647886535642595,0.00019470199913484976,0.17208194732666016,True
98,263,10.107009549617695,0.00018264199752593413,0.17206668853759766,True
99,183,6.42761260883752,0.00018591499974718317,0.17206668853759766,True
100,88,8.192256097286796,0.0001995250022446271,0.17206668853759766,True
101,97,7.739537446123707,0.00018369999816059135,0.1720590591430664,True
102,230,3.371750624630385,0.00018443299995851703,0.17205142974853516,True
103,60,9.127709217125105,0.00018351499966229312,0.1720590591430664,True
104,230,9.120700662921317,0.00018317299691261724,0.1720590591430664,True
105,135,3.51049232316436,0.00018448799892212264,0.17205142974853516,True
106,237,9.58449074394277,0.0001957179993041791,0.1720590591430664,True
107,77,50.31269453755885,0.00019212600091123022,0.1721200942993164,True
108,60,11.693792135720415,0.00019841800167341717,0.1720590591430664,True
109,17,5.245503672264934,0.00018861499847844243,0.17214298248291016,True
110,76,9.761638933970108,0.00018554200141807087,0.1720743179321289,True
111,77,14.288900951253837,0.00018375299987383187,0.1720590591430664,True
112,244,6.287351851622657,0.00018482799714547582,0.1720590591430664,True
113,128,14.953098649150222,0.00018444300076225773,0.17206668853759766,True
114,77,10.403834694533996,0.0001943219976965338,0.1720590591430664,True
115,267,4.5645552389234805,0.00020918400332448073,0.17205142974853516,True
116,183,2.107505103471704,0.00018384599752607755,0.17205142974853516,True
117,183,3.01955573209919,0.000202622999495361,0.17205142974853516,True
118,135,2.663863312570114,0.00018261799777974375,0.17205142974853516,True
119,76,6.201727115717366,0.0001840760014601983,0.17205142974853516,True
120,57,5.669468275628755,0.00018623100186232477,0.17205142974853516,True
121,27,9.39241310780454,0.0001887340004032012,0.17208194732666016,True
122,183,9.202479976715882,0.00018416600141790695,0.1720590591430664,True
123,109,5.522534283595817,0.00019459900067886338,0.17205142974853516,True
124,88,4.275435425661739,0.00018289700165041722,0.17205142974853516,True
125,88,6.6330695820764305,0.00018608499885885976,0.1720590591430664,True
126,163,12.103275634448915,0.00020639300055336207,0.17206668853759766,True
127,177,12.478472475118167,0.00018551399989519268,0.1720590591430664,True
128,263,6.436675124539691,0.00018288700084667653,0.1720590591430664,True
129,237,6.971222624359776,0.00018227100008516572,0.1720590591430664,True
130,57,2.746626914522484,0.00021081199884065427,0.17205142974853516,True
131,135,7.143534008947207,0.00019844599955831654,0.17206668853759766,True
132,26,7.627648577150931,0.00019891199917765334,0.17208194732666016,True
133,263,7.464249677081707,0.00020474299890338443,0.1720590591430664,True
134,138,25.746815816952115,0.00020534499708446674,0.17209720611572266,True
135,138,112.27844193038376,0.00021173799905227497,0.17218875885009766,True
136,17,4.114881896077858,0.0002078120014630258,0.1721353530883789,True
137,183,4.316155408310158,0.0001862680001067929,0.17205142974853516,True
138,76,8.002324531387812,0.0001842560013756156,0.17206668853759766,True
139,135,5.114577030334683,0.00018401600027573295,0.17205142974853516,True
140,136,8.96915932166348,0.00018412999997963198,0.17206668853759766,True
141,64,8.364483223835625,0.0001979549997486174,0.17206668853759766,True
142,143,4.281805448924342,0.00018420400010654703,0.17205142974853516,True
143,112,7.306457106532681,0.0001850400003604591,0.1720590591430664,True
144,143,8.446623118907228,0.00019314400196890347,0.1720590591430664,True
145,57,3.571980771715652,0.00018320999879506417,0.17205142974853516,True
146,290,14.01470491531886,0.00018489099966245703,0.17205142974853516,True
147,215,8.016603184709869,0.00018397999883745797,0.1720590591430664,True
148,135,10.518084770665752,0.00018471900330041535,0.17206668853759766,True
149,129,10.377148114249293,0.0001962810019904282,0.17205142974853516,True
150,48,11.544433038260408,0.00018701299995882437,0.1720743179321289,True
151,78,14.980262482259228,0.0001861669989011716,0.17206668853759766,True
152,183,5.856754333833081,0.00018787199951475486,0.17205142974853516,True
153,273,16.413136805469424,0.00018482099767425098,0.17206668853759766,True
154,183,6.9477628416102455,0.00019864500063704327,0.1720590591430664,True
155,220,2.752329348287715,0.0001819079989218153,0.17205142974853516,True
156,273,7.602180989694329,0.0001944599971466232,0.1720590591430664,True
157,183,5.115989939377552,0.00019788299687206745,0.1720590591430664,True
158,270,6.4273909689473765,0.00018599999748403206,0.17205142974853516,True
159,82,9.431172609939775,0.0001940709989867173,0.1720590591430664,True
160,183,6.264298901491859,0.0001826230000006035,0.1720590591430664,True
161,48,11.229306152366329,0.00018090199955622666,0.1720590591430664,True
162,26,10.761730614402552,0.00019436799993854947,0.1720895767211914,True
163,17,12.895428436830292,0.00019848900046781637,0.17214298248291016,True
164,230,3.1486688748601233,0.0002019200001086574,0.17205142974853516,True
165,244,6.271875733991221,0.0001818149976315908,0.1720590591430664,True
166,77,20.714660496515744,0.0001886710015241988,0.1720743179321289,True
167,230,3.6847943127450016,0.00018328599981032312,0.17205142974853516,True
168,60,4.2085476395711385,0.00018595899746287614,0.17205142974853516,True
169,127,6.699559009508292,0.0001961290035978891,0.1720590591430664,True
170,128,13.973562504105773,0.00019917500321753323,0.1720743179321289,True
171,244,4.523427651619534,0.00019210099708288908,0.17205142974853516,True
172,135,1.095084831103496,0.00018568700033938512,0.17205142974853516,True
173,128,5.1496748487932065,0.0001973389989871066,0.1720590591430664,True
174,183,8.593606633482732,0.00018916699991677888,0.17206668853759766,True
175,234,5.320829589022015,0.0003471909985819366,0.17205142974853516,True
176,234,10.720752821020735,0.0002548810007283464,0.1720590591430664,True
177,234,15.923579374467712,0.00018960800298373215,0.1720743179321289,True
178,237,101.36244756168237,0.00018710100266616791,0.17209720611572266,True
179,174,13.497679131943347,0.00020815199968637899,0.1720590591430664,True
180,183,4.197267506574524,0.00018406199887976982,0.17205142974853516,True
181,135,3.9989550701419874,0.0001830889996199403,0.17205142974853516,True
182,112,12.425887549531685,0.00020848699932685122,0.1720743179321289,True
183,127,5.488001218360709,0.0001839459982875269,0.17205142974853516,True
184,109,4.714547550928642,0.00019029100076295435,0.17205142974853516,True
185,17,3.011834320904083,0.00019856900325976312,0.1721353530883789,True
186,237,4.331039501841724,0.00018663000082597136,0.17205142974853516,True
187,47,13.352110312050993,0.0002043249987764284,0.17206668853759766,True
188,143,4.8163805306135385,0.0002069649999612011,0.17205142974853516,True
189,267,4.320027323907973,0.0001830020009947475,0.17205142974853516,True
190,26,12.702114982642328,0.00018869399718823843,0.17209720611572266,True
191,220,6.764406673530745,0.00018730499868979678,0.1720590591430664,True
192,109,4.8899342477469485,0.00018813900169334374,0.17205142974853516,True
193,17,5.9468016135134745,0.00020877700080745853,0.17214298248291016,True
194,26,5.794892622594666,0.00021894099700148217,0.1720895767211914,True
195,177,9.340313856690138,0.0001844889993662946,0.17205142974853516,True
196,127,4.991681779393134,0.0001861750024545472,0.17205142974853516,True
197,82,3.1653436257934855,0.00019799200163106434,0.17205142974853516,True
198,273,3.670662421259091,0.0001819909994082991,0.17205142974853516,True
199,82,6.024773048200272,0.0001864219993876759,0.1720590591430664,True
200,112,9.492041834181569,0.00022659299793303944,0.17205142974853516,True
201,109,3.115772224699485,0.00019881099797203206,0.17205142974853516,True
202,230,9.964056559224897,0.0002770119972410612,0.1720590591430664,True
203,183,12.06512315355463,0.00019350799993844703,0.1720743179321289,True
204,55,19.604159010238284,0.00019573899771785364,0.17206668853759766,True
205,135,5.725280036079025,0.00019106499894405715,0.1720590591430664,True
206,280,7.960325547594142,0.00019484900258248672,0.17206668853759766,True
207,128,7.612186293120681,0.0001952759994310327,0.1720590591430664,True
208,82,3.5309510149582337,0.00018221099890070036,0.17205142974853516,True
209,290,17.831123215029216,0.00020279399905120954,0.17206668853759766,True
210,138,31.53612057539346,0.0001996549981413409,0.1721048355102539,True
211,230,3.6478743988540567,0.00018749100127024576,0.17205142974853516,True
212,143,7.119408700769712,0.0002327980000700336,0.17205142974853516,True
213,234,5.955978156526479,0.00018551299945102073,0.1720590591430664,True
214,243,12.529076702628004,0.00018846399689209647,0.1720590591430664,True
215,76,4.73050817298306,0.00018318599904887378,0.1720590591430664,True
216,230,4.564206459138698,0.00018575400099507533,0.17205142974853516,True
217,112,6.147989309274051,0.0001830789988161996,0.1720590591430664,True
218,234,5.071331197824654,0.0001999909982259851,0.17205142974853516,True
219,127,5.724441792046136,0.00019228400196880102,0.17205142974853516,True
220,276,6.73503722411603,0.00018110900055035017,0.1720590591430664,True
221,177,68.11285712750487,0.00020057700021425262,0.1721658706665039,True
222,183,60.641387013839534,0.00019915699886041693,0.17217350006103516,True
223,26,11.46481461921621,0.0001878910006780643,0.1720895767211914,True
224,57,2.5260119728690174,0.00019206599972676486,0.17205142974853516,True
225,48,13.680653387643623,0.00018451700088917278,0.1720743179321289,True
226,183,2.9602782724934853,0.00019222600167267956,0.17205142974853516,True
227,138,22.630693554134663,0.00018606199955684133,0.17208194732666016,True
228,263,7.635392830751718,0.00018870599888032302,0.1720590591430664,True
229,17,7.059690767576572,0.00018754800112219527,0.17214298248291016,True
230,82,6.353544770730743,0.00018695999824558385,0.1720590591430664,True
231,263,7.925462103651102,0.00018768899826682173,0.1720590591430664,True
232,243,6.996872985456438,0.00018765700224321336,0.1720590591430664,True
233,109,3.3175986181626635,0.00019279899788671173,0.17205142974853516,True
234,273,4.652417213933823,0.00018467599875293672,0.1720590591430664,True
235,183,3.73508988915514,0.00019655199866974726,0.17205142974853516,True
236,17,19.988945665966636,0.00019752799926209264,0.17215824127197266,True
237,27,4.608385553427554,0.00019452400010777637,0.17208194732666016,True
238,82,4.9117400081032825,0.00018841700148186646,0.17205142974853516,True
239,60,6.290594897574384,0.00019815099949482828,0.1720590591430664,True
240,263,17.289333318329298,0.0001829049979278352,0.1720590591430664,True
241,270,5.455597235622908,0.00018311999883735552,0.17205142974853516,True
242,129,7.778308373132946,0.000184776999958558,0.1720590591430664,True
243,244,5.414304717817171,0.00019488199905026704,0.1720590591430664,True
244,48,17.35082325390467,0.0002057069978036452,0.17206668853759766,True
245,76,6.384027896608736,0.00019727299877558835,0.1720590591430664,True
246,214,5.375928890324367,0.00018236100004287437,0.17205142974853516,True
247,230,3.86347873059722,0.00019528700067894533,0.1720590591430664,True
248,64,6.271383662401647,0.00018200600243289955,0.17205142974853516,True
249,230,2.622126432615658,0.00019011899712495506,0.17205142974853516,True
250,112,7.507670040342767,0.00018453099983162247,0.1720590591430664,True
251,214,3.0590062689409008,0.0001854859983723145,0.17205142974853516,True
252,165,17.810513503235953,0.00018531499881646596,0.1720590591430664,True
253,60,12.803086171445734,0.00019045600129175,0.1720590591430664,True
254,220,6.294541084880948,0.00019955000243498944,0.1720590591430664,True
255,138,15.83715158910038,0.00018682899826671928,0.1720743179321289,True
256,109,7.124277596475549,0.00019806899945251644,0.1720590591430664,True
257,27,19.98030253844667,0.0001878300026874058,0.17208194732666016,True
258,176,9.560562708620278,0.00018854000154533423,0.17206668853759766,True
259,129,11.52753086886669,0.00019116800103802234,0.17206668853759766,True
260,238,7.636130948265553,0.00018397399981040508,0.17205142974853516,True
261,135,4.406189566568086,0.0001882619981188327,0.1720590591430664,True
262,17,3.7541840119461494,0.00019065100059378892,0.1721353530883789,True
263,177,29.475413404022216,0.0002479479990142863,0.17208194732666016,True
264,244,4.44594025488144,0.00021028899936936796,0.1720590591430664,True
265,237,3.5976181160113496,0.00018367300071986392,0.17205142974853516,True
266,82,5.996328048077039,0.00018625499797053635,0.1720590591430664,True
267,135,4.97245073741413,0.0001810710018617101,0.1720590591430664,True
268,78,14.563761400312549,0.00019315999816171825,0.1720590591430664,True
269,127,53.248551713584924,0.00019741700089070946,0.1721200942993164,True
270,234,8.762929663181769,0.00018507300046621822,0.1720590591430664,True
271,234,6.235569123919291,0.0001866669990704395,0.17205142974853516,True
272,183,5.053393787395629,0.00019506799799273722,0.17205142974853516,True
273,76,8.062922206942442,0.00018650999845704064,0.1720590591430664,True
274,237,8.505170941454686,0.00020306099759181961,0.1720590591430664,True
275,17,3.2220526338335933,0.00018832500063581392,0.1721353530883789,True
276,206,6.317930138755467,0.00018616300076246262,0.17205142974853516,True
277,143,7.792308075587679,0.00018325000201002695,0.1720590591430664,True
278,183,4.991377885572081,0.00018349500169279054,0.17205142974853516,True
279,17,17.237167246514275,0.00019586400230764411,0.1721506118774414,True
280,230,6.500053937066782,0.00018824799917638302,0.17205142974853516,True
281,220,3.1180526935227397,0.00024428300093859434,0.1720590591430664,True
282,97,12.414325598496946,0.00026088500089826994,0.1720743179321289,True
283,77,15.826721728046659,0.00021090500013087876,0.17206668853759766,True
284,263,12.06532376193349,0.0001913250016514212,0.17209720611572266,True
285,129,4.2859474751584274,0.00022095700114732608,0.1720590591430664,True
286,263,7.440834643822878,0.0001855020018410869,0.17205142974853516,True
287,183,2.570516492303631,0.0001849289983510971,0.17205142974853516,True
288,55,25.4601258122856,0.00018303500110050663,0.17206668853759766,True
289,82,4.382578014922479,0.0001821730002120603,0.17205142974853516,True
290,17,3.192506471180289,0.00025916899903677404,0.17214298248291016,True
291,230,8.91583230904753,0.00035711999953491613,0.1720590591430664,True
292,143,5.337550582022302,0.00022151700250105932,0.17205142974853516,True
293,48,4.056660819174796,0.00021128799926373176,0.17205142974853516,True
294,244,4.034285975865311,0.00021033100347267464,0.17205142974853516,True
295,230,5.257885138773221,0.0002142710000043735,0.17205142974853516,True
296,220,5.500016054080323,0.00019635999706224538,0.1720590591430664,True
297,230,7.147616379059541,0.0001917670015245676,0.17205142974853516,True
298,97,5.396312239484406,0.0001989170013985131,0.17205142974853516,True
299,76,5.178063390654857,0.00018430400086799636,0.17205142974853516,True
300,183,9.176559233277441,0.00018135299978894182,0.1720590591430664,True
301,183,4.00298783087962,0.0001826350016926881,0.17205142974853516,True
302,138,34.54990664221055,0.00034042900006170385,0.1720895767211914,True
303,183,3.273918452647811,0.0001941579976119101,0.17205142974853516,True
304,280,8.762179994976465,0.00021555100101977587,0.17205142974853516,True
305,183,4.661295594643262,0.00019011900076293387,0.17205142974853516,True
306,246,55.762554387602144,0.0002033870005107019,0.17220401763916016,True
307,135,9.897235991599851,0.00018655099847819656,0.17205142974853516,True
308,82,3.2824619348006094,0.00019633499687188305,0.17205142974853516,True
309,26,8.067716692395122,0.00020186899928376079,0.1720895767211914,True
310,64,6.240785005200278,0.0001986659990507178,0.1720590591430664,True
311,273,9.554402731850333,0.00018810600158758461,0.1720590591430664,True
312,64,9.806419153742043,0.00018404599904897623,0.1720590591430664,True
313,176,5.709622748435804,0.0001865880003606435,0.17205142974853516,True
314,230,12.36354470891903,0.0001850100015872158,0.17205142974853516,True
315,206,9.316121592299204,0.0001961330017365981,0.1720590591430664,True
316,237,5.726417004624623,0.00019411999892327003,0.1720590591430664,True
317,183,5.577669479865736,0.00018392499987385236,0.1720590591430664,True
318,128,8.328252073623954,0.00018520600133342668,0.17206668853759766,True
319,246,4.959039101230615,0.0001822119993448723,0.17205142974853516,True
320,78,36.09702076479943,0.00018752899995888583,0.1720743179321289,True
321,17,16.399153396364962,0.00019521599824656732,0.1721506118774414,True
322,76,6.00844314680279,0.00018292599997948855,0.1720590591430664,True
323,234,5.858712201987483,0.00019187499856343493,0.17205142974853516,True
324,128,5.783630635508238,0.00019002200133400038,0.17205142974853516,True
325,244,2.6209159832277753,0.00019538299966370687,0.17205142974853516,True
326,76,5.006558502043013,0.00018756200006464496,0.17205142974853516,True
327,220,4.266587324044538,0.00018598699898575433,0.17205142974853516,True
328,17,9.87923490634849,0.00019237200103816576,0.1721353530883789,True
329,234,3.547535228351636,0.0002069449983537197,0.17205142974853516,True
330,183,5.121776753548148,0.0001898379996418953,0.17205142974853516,True
331,243,9.986439993643911,0.0001979609987756703,0.1720743179321289,True
332,238,3.054621845830627,0.00019037200036109425,0.17205142974853516,True
333,57,7.10050771018301,0.00019081400023424067,0.1720590591430664,True
334,234,5.214069732779792,0.0001818510027078446,0.17205142974853516,True
335,57,1.8693325442745146,0.00018860300042433664,0.17205142974853516,True
336,273,13.799171540780867,0.00019727299877558835,0.1720743179321289,True
337,174,4.554098423651431,0.000193855998077197,0.17205142974853516,True
338,230,6.44802737210123,0.00018343400006415322,0.1720590591430664,True
339,267,5.568512858509125,0.00019767200137721375,0.17205142974853516,True
340,136,4.342191727112329,0.00019254400103818625,0.1720590591430664,True
341,143,6.297225391100946,0.00018627500321599655,0.1720590591430664,True
342,138,26.18113339166531,0.00018757599900709465,0.17209720611572266,True
343,97,15.768200300842121,0.00019685799998114817,0.17205142974853516,True
344,60,10.926555066806882,0.00019661099941004068,0.1720590591430664,True
345,64,3.779024856243193,0.0001847300009103492,0.17205142974853516,True
346,60,6.656089918205198,0.00018884600285673514,0.17206668853759766,True
347,163,8.551920413890628,0.0001894330016511958,0.17205142974853516,True
348,88,11.409394967798866,0.00038967799991951324,0.1720590591430664,True
349,214,3.8667635539988434,0.00018355599968344904,0.1720590591430664,True
350,48,16.14847789577754,0.00019124900063616224,0.1720743179321289,True
351,112,8.592907357254562,0.0001945690019056201,0.1720743179321289,True
352,273,7.315807856010134,0.0001931449987750966,0.1720590591430664,True
353,220,5.0094741880144,0.00019180299932486378,0.1720590591430664,True
354,177,70.49958866379075,0.00021409800319815986,0.1721811294555664,True
355,60,5.1047837544493975,0.0001980519991775509,0.17205142974853516,True
356,129,5.1758499382009395,0.0002126540020981338,0.17205142974853516,True
357,138,27.657469803226657,0.00019991099907201715,0.17208194732666016,True
358,174,4.248556109639908,0.00019062499995925464,0.17205142974853516,True
359,138,96.99277288610249,0.00020577199757099152,0.17214298248291016,True
360,183,4.834530034917775,0.00018344300042372197,0.17205142974853516,True
361,57,5.120652823783897,0.00018614800137584098,0.17205142974853516,True
362,234,8.396603160529798,0.00025295099840150215,0.1720590591430664,True
363,220,5.571233350506427,0.00019052399875363335,0.1720590591430664,True
364,177,19.902490743267272,0.00018526799976825714,0.1720590591430664,True
365,17,5.650039634405661,0.00022935100059839897,0.17215824127197266,True
366,17,8.328812034970948,0.00018822299898602068,0.1721506118774414,True
367,230,12.108918627689341,0.00018726800044532865,0.1720743179321289,True
368,177,29.2613013785636,0.00018895500033977441,0.1721048355102539,True
369,136,6.5716179034907976,0.0001834579998103436,0.1720590591430664,True
370,244,9.554848882922201,0.00018242700025439262,0.1720590591430664,True
371,47,24.096776594904433,0.00018627700046636164,0.17208194732666016,True
372,244,5.542016007645135,0.00021514600302907638,0.1720590591430664,True
373,230,6.41165354503693,0.00018320699746254832,0.17205142974853516,True
374,27,6.843713150295127,0.00018648800323717296,0.17208194732666016,True
375,109,3.9307043553659704,0.0001833239984989632,0.17205142974853516,True
376,136,5.240542106728217,0.00018414700025459751,0.1720590591430664,True
377,77,18.948843585771264,0.00019717300165211782,0.1720743179321289,True
378,135,2.963962932301025,0.00019230500038247555,0.17205142974853516,True
379,78,10.74402933010817,0.00019932199938921258,0.1720590591430664,True
380,237,8.987909423900048,0.00019115800023428164,0.1720743179321289,True
381,82,4.278637718548157,0.00018567499864730053,0.17205142974853516,True
382,129,5.715452298068478,0.0002065599983325228,0.1720590591430664,True
383,57,4.401424396683667,0.000184276002983097,0.17205142974853516,True
384,78,12.751416274552648,0.00018680200082599185,0.1720590591430664,True
385,88,11.90904458435109,0.00018079599976772442,0.1720590591430664,True
386,183,3.494913600316861,0.00018168799942941405,0.17205142974853516,True
387,48,11.439944950129622,0.0001836299998103641,0.17206668853759766,True
388,230,6.429664565367586,0.00019685700317495503,0.17205142974853516,True
389,76,6.168153982778665,0.00021256800027913414,0.1720590591430664,True
390,237,6.710630959812021,0.00020476500139920972,0.1720590591430664,True
391,129,16.503237796865335,0.00022986900148680434,0.1720590591430664,True
392,214,4.921634531847501,0.0002027589980571065,0.17205142974853516,True
393,220,4.115674596033258,0.00020627699996111915,0.17205142974853516,True
394,263,7.179165288185193,0.0001850200023909565,0.1720590591430664,True
395,230,5.820010988614955,0.00020901699826936238,0.17205142974853516,True
396,273,7.281356915994404,0.00019808100114460103,0.1720590591430664,True
397,41,50.28126668216693,0.0001944089999597054,0.1720895767211914,True
398,112,7.01163956094679,0.00018511000234866515,0.1720590591430664,True
399,97,6.2314763612180135,0.00018664199888007715,0.1720590591430664,True
400,17,4.130722158201364,0.00019087100008619018,0.1721353530883789,True
401,55,32.27035144563832,0.00018559400268713944,0.17208194732666016,True
402,109,2.9683803591012783,0.00018220100173493847,0.17205142974853516,True
403,214,6.177172164344638,0.0001840879995143041,0.17205142974853516,True
404,17,6.365361388134556,0.00018808899767464027,0.17214298248291016,True
405,183,3.600376591783555,0.00018993200137629174,0.17205142974853516,True
406,64,9.3829649911893,0.00018660400019143708,0.1720590591430664,True
407,143,10.043193992603221,0.00018691500008571893,0.1720590591430664,True
408,76,8.092658440682449,0.00020419599968590774,0.17205142974853516,True
409,176,6.969961604148945,0.0001877349968708586,0.17206668853759766,True
410,206,5.07597729497983,0.0001865659978648182,0.17205142974853516,True
411,149,6.340172580288717,0.00018612900021253154,0.17205142974853516,True
412,183,6.698406282373782,0.00018911100050900131,0.1720590591430664,True
413,76,7.076672599363309,0.00021669299894711003,0.1720590591430664,True
414,263,10.63744957004909,0.0001885070014395751,0.1720590591430664,True
415,112,8.918570407681761,0.00018714199904934503,0.17206668853759766,True
416,177,12.226847812743259,0.00018419399930280633,0.17205142974853516,True
417,159,17.38138309156229,0.00018646399985300377,0.17206668853759766,True
418,112,7.694523281807929,0.00018824899962055497,0.1720590591430664,True
419,183,9.944779170527445,0.00020313999993959442,0.17208194732666016,True
420,214,6.46603879042751,0.00018841100245481357,0.1720590591430664,True
421,246,6.373151287941479,0.00021127799845999107,0.1720590591430664,True
422,237,8.87905001615086,0.00018987899966305122,0.1720590591430664,True
423,26,5.903334495629129,0.0001882619981188327,0.17208194732666016,True
424,135,4.49289612837498,0.00018459199782228097,0.17205142974853516,True
425,270,2.674126311551267,0.00018547500076238066,0.17205142974853516,True
426,17,13.078884126429168,0.00019234099818277173,0.17214298248291016,True
427,47,14.268498807253522,0.00019933500152546912,0.1720743179321289,True
428,263,5.386071798342995,0.00018825499864760786,0.17205142974853516,True
429,109,3.5597442354315287,0.0001860410011431668,0.1720590591430664,True
430,220,6.918225300037041,0.0002019500025198795,0.1720590591430664,True
431,244,5.174029325022037,0.00020181699801469222,0.17205142974853516,True
432,26,11.132269447569154,0.00019845199858536944,0.17209720611572266,True
433,243,16.571488544100724,0.0001890339990495704,0.17206668853759766,True
434,238,10.09986219352001,0.0001961759990081191,0.17205142974853516,True
435,128,6.967657000203345,0.00018304399782209657,0.1720590591430664,True
436,48,9.19330737590566,0.00018343700139666907,0.1720590591430664,True
437,220,6.817034241621411,0.00018855599773814902,0.17205142974853516,True
438,244,3.867398321435355,0.00018319599985261448,0.17205142974853516,True
439,19,5.144144038791795,0.00018419700063532218,0.17205142974853516,True
440,273,7.748657900921459,0.0001868010003818199,0.17206668853759766,True
441,183,4.390028735255083,0.00018387999807600863,0.17205142974853516,True
442,57,10.753852335864682,0.00018732500029727817,0.1720590591430664,True
443,263,6.698543386135751,0.00018661800277186558,0.17205142974853516,True
444,237,2.794182090645906,0.00018420400010654703,0.17205142974853516,True
445,220,6.106856844408515,0.00019061900093220174,0.17206668853759766,True
446,230,7.090920710062669,0.0001814720017137006,0.17205142974853516,True
447,27,7.173371390601701,0.00019064400112256408,0.1720895767211914,True
448,97,3.9875258803722327,0.00020160499843768775,0.17205142974853516,True
449,55,8.766703056850579,0.0001954909967025742,0.17206668853759766,True
450,60,9.40468992203329,0.00018427599934511818,0.1720590591430664,True
451,143,2.9037653235804286,0.00019138699644827284,0.17205142974853516,True
452,112,6.543954785452411,0.0001824060018407181,0.17205142974853516,True
453,57,6.5945305734883854,0.00019508900004439056,0.1720590591430664,True
454,82,7.504123654275631,0.00018651000209501944,0.1720590591430664,True
455,244,5.50444459115272,0.0001956999985850416,0.17205142974853516,True
456,109,3.6254527915987147,0.00018274199828738347,0.17205142974853516,True
457,76,8.890373173281594,0.00027193400092073716,0.1720743179321289,True
458,176,4.209398458964437,0.00018378100139671005,0.17205142974853516,True
459,60,5.295713499464991,0.0001862030003394466,0.1720590591430664,True
460,149,3.648956311406064,0.00018486300177755766,0.17205142974853516,True
461,143,3.6587326324199267,0.00018737799837253988,0.17205142974853516,True
462,163,8.109064951129966,0.00020539199977065437,0.1720590591430664,True
463,128,10.678627640719691,0.00018168200040236115,0.1720590591430664,True
464,17,3.104808254434329,0.00018869400082621723,0.1721353530883789,True
465,246,6.305868090510556,0.0001882700016722083,0.17205142974853516,True
466,177,13.161002410518657,0.0001875060006568674,0.17206668853759766,True
467,97,14.595729248915278,0.0002038509992416948,0.17206668853759766,True
468,88,5.870744173754168,0.0001872630018624477,0.17205142974853516,True
469,206,4.894469610158446,0.00020571200002450496,0.17205142974853516,True
470,64,8.410098653363827,0.00018243999875267036,0.1720590591430664,True
471,112,7.489272776982521,0.0001857839997683186,0.1720590591430664,True
472,109,3.296587982855323,0.0001830750006774906,0.17205142974853516,True
473,263,13.94956667622971,0.00019444400095380843,0.1720743179321289,True
474,214,8.773441255645128,0.00019498799883876927,0.1720590591430664,True
475,26,9.093930652604143,0.00019118999989586882,0.17208194732666016,True
476,128,6.177424534510932,0.00018996500148205087,0.1720590591430664,True
477,220,3.4974657497502553,0.00019010400137631223,0.17205142974853516,True
478,129,14.316313619754572,0.00019226800213800743,0.17206668853759766,True
479,150,7.918822778116237,0.00018630399790708907,0.1720590591430664,True
480,234,5.653780669504715,0.00018746500063571148,0.1720590591430664,True
481,64,20.867532452833682,0.0001854879992606584,0.17206668853759766,True
482,88,22.167997289524312,0.0001822440026444383,0.17206668853759766,True
483,109,3.94170992916413,0.00019006199727300555,0.17205142974853516,True
484,138,103.15287008709181,0.00020151800345047377,0.1721658706665039,True
485,208,5.774374504928129,0.00018816499868989922,0.17205142974853516,True
486,60,13.729332749466154,0.0001839520009525586,0.17206668853759766,True
487,17,7.554323123225497,0.00019336399782332592,0.1721506118774414,True
488,149,6.309618930317347,0.00018232099682791159,0.17205142974853516,True
489,109,3.0203815079883336,0.00018451200230629183,0.17205142974853516,True
490,135,4.96040102190099,0.00018467399786459282,0.17205142974853516,True
491,112,6.081070680708438,0.00018353999985265546,0.17205142974853516,True
492,82,18.21308669237909,0.0001992939978663344,0.1720590591430664,True
493,76,6.289395204818036,0.0001832289999583736,0.1720590591430664,True
494,177,62.265395419543836,0.0002524519986764062,0.17217350006103516,True
495,26,16.259776882824088,0.0001999099986278452,0.1721048355102539,True
496,150,32.711053364481394,0.00020898799994029105,0.1720743179321289,True
497,47,10.985453688550471,0.0001926100012497045,0.17206668853759766,True
498,143,3.343108880005432,0.00020112499987590127,0.17205142974853516,True
499,60,5.794124040788108,0.0001863209981820546,0.1720590591430664,True
500,230,12.789022101596204,0.00020628899801522493,0.17208194732666016,True
501,244,7.71601008059252,0.0001848720021371264,0.1720590591430664,True
502,183,5.428269338794817,0.00018189000184065662,0.1720590591430664,True
503,237,4.762562401966928,0.00024396899971179664,0.1720590591430664,True
504,183,9.197193568685062,0.00018752399773802608,0.17205142974853516,True
505,26,16.113503311879693,0.0001870580017566681,0.1720895767211914,True
506,26,26.74491681496099,0.00019555499966372736,0.17208194732666016,True
507,89,5.291095348350029,0.0004618700004357379,0.17205142974853516,True
508,17,6.424711747795479,0.00019631000031949952,0.1721353530883789,True
509,17,8.815039718167698,0.00020359799964353442,0.17214298248291016,True
510,26,18.39752379658357,0.00019552500089048408,0.17209720611572266,True
511,97,10.024695954566345,0.00018472099691280164,0.1720590591430664,True
512,183,16.504083525846934,0.00018772600014926866,0.1720743179321289,True
513,77,26.7644096019454,0.000190610000572633,0.17211246490478516,True
514,238,3.8271595783910533,0.00019298700135550462,0.17205142974853516,True
515,246,10.914028305760343,0.00018505299885873683,0.1720590591430664,True
516,48,12.92056124913125,0.00020675699852290563,0.17206668853759766,True
517,177,22.460258479105622,0.00019288000112283044,0.17206668853759766,True
518,48,8.816082677692924,0.0002035529978456907,0.1720590591430664,True
519,17,13.112419982457633,0.00019072900249739178,0.17215824127197266,True
520,135,5.320592258411902,0.00022376899869414046,0.17205142974853516,True
521,183,7.020331275544705,0.00019583000175771303,0.17205142974853516,True
522,112,5.890101653680879,0.00022479600011138245,0.17205142974853516,True
523,237,4.606214937879325,0.0003060609997191932,0.17205142974853516,True
524,26,4.791779771015359,0.0001852429995778948,0.17208194732666016,True
525,97,8.79630485657641,0.00018257899864693172,0.1720590591430664,True
526,177,14.597578566851926,0.00019684899962157942,0.17205142974853516,True
527,220,4.82598369979624,0.00018270299915457144,0.17205142974853516,True
528,183,10.327726231203963,0.00018332900071982294,0.1720743179321289,True
529,27,20.795329546454187,0.00018401600027573295,0.17209720611572266,True
530,26,12.866319608550983,0.00018837400057236664,0.1720895767211914,True
531,230,2.536576494202326,0.00018440300118527375,0.17205142974853516,True
532,177,18.13131612374971,0.00019066199820372276,0.1720743179321289,True
533,273,14.851241143002017,0.00021305400150595233,0.1720743179321289,True
534,177,76.6662822059648,0.0001991460012504831,0.17218875885009766,True
535,273,6.809661845122632,0.00018439700215822086,0.1720590591430664,True
536,234,16.577345376613906,0.000183939999260474,0.17206668853759766,True
537,220,2.4553421401116173,0.0001883020013337955,0.17205142974853516,True
538,267,4.203652404587055,0.0001850220032793004,0.17205142974853516,True
539,76,8.426928906218047,0.00018359200112172402,0.17206668853759766,True
540,138,37.939093931746726,0.0001871979984571226,0.17211246490478516,True
541,237,9.24386333403051,0.00018609000107971951,0.17206668853759766,True
542,234,5.240473422568554,0.0001875769994512666,0.17205142974853516,True
543,220,5.772576196557515,0.00019877099839504808,0.1720590591430664,True
544,17,16.459625385451115,0.00019311100186314434,0.1721506118774414,True
545,77,74.55102377250996,0.00019725099991774186,0.17217350006103516,True
546,183,9.431391971062745,0.00019524200251908042,0.1720590591430664,True
547,136,18.67841244321163,0.0001943200004461687,0.1720743179321289,True
548,290,4.736840300005718,0.00021320399901014753,0.17205142974853516,True
549,183,1.7014728834770312,0.00018326600184082054,0.17205142974853516,True
550,273,9.714506926027061,0.00018689499847823754,0.17206668853759766,True
551,238,7.324637081556752,0.00018511399684939533,0.1720590591430664,True
552,174,7.699935133684627,0.00019824699847958982,0.1720590591430664,True
553,183,5.43524081593041,0.0002035510005953256,0.1720590591430664,True
554,138,19.017109564400577,0.00019449699902907014,0.17208194732666016,True
555,220,4.957275473512791,0.00018279500000062399,0.17205142974853516,True
556,263,5.4082761743186305,0.00018446200192556717,0.1720590591430664,True
557,64,5.599626659652965,0.00018917800116469152,0.17205142974853516,True
558,82,6.6021905742571425,0.0001824569990276359,0.1720590591430664,True
559,149,11.59049532582532,0.0001857859970186837,0.1720743179321289,True
560,246,5.2252996354071195,0.00018319499940844253,0.1720590591430664,True
561,234,4.573043646989187,0.00043094599823234603,0.17205142974853516,True
562,220,10.21811700440437,0.00018201200145995244,0.1720590591430664,True
563,220,5.846905617598894,0.00018877199909184128,0.1720590591430664,True
564,112,7.1061358908573915,0.00018188000103691593,0.1720590591430664,True
565,149,6.851454005012543,0.00020280899843783118,0.17205142974853516,True
566,267,4.715394129296475,0.00019473099746392109,0.17205142974853516,True
567,97,11.201927479520473,0.00018281300071976148,0.17205142974853516,True
568,135,9.988974585758868,0.00019189800150343217,0.1720590591430664,True
569,97,7.692161426718027,0.000185421002242947,0.17205142974853516,True
570,135,5.64649635763891,0.0001836019982874859,0.1720590591430664,True
571,76,5.221576489735558,0.00019617800353444181,0.17205142974853516,True
572,165,13.27514642303135,0.0002059440012089908,0.1720590591430664,True
573,230,18.977737260645466,0.00019763000091188587,0.17209720611572266,True
574,88,20.302812339726916,0.00019160200099577196,0.17209720611572266,True
575,128,12.536895251244331,0.00018456299949320965,0.1720590591430664,True
576,177,25.870178399093675,0.0001965020019270014,0.17206668853759766,True
577,230,7.06318400040064,0.0001903120028146077,0.1720590591430664,True
578,57,5.86525661729335,0.00020406299881869927,0.17205142974853516,True
579,230,4.230606854143008,0.00018324799748370424,0.17205142974853516,True
580,230,4.243268744546187,0.00018187699970440008,0.17205142974853516,True
581,176,7.056590770814033,0.00018531500245444477,0.1720590591430664,True
582,76,3.6843493553784965,0.00019422600234975107,0.17205142974853516,True
583,230,2.8898775120529274,0.00018470299983164296,0.17205142974853516,True
584,129,3.939526190991137,0.00018508799985283986,0.17205142974853516,True
585,128,5.869993369472172,0.0001972819991351571,0.1720590591430664,True
586,82,6.632366765087289,0.00018301299860468134,0.1720590591430664,True
587,135,4.286088528047085,0.00018191700291936286,0.1720590591430664,True
588,177,23.293056380742925,0.00019737800175789744,0.17208194732666016,True
589,183,7.53346081323593,0.0001933919993462041,0.17206668853759766,True
590,183,3.4020105130097784,0.0001912299994728528,0.17205142974853516,True
591,230,10.572660079774868,0.00018544799968367442,0.1720743179321289,True
592,290,7.811342479008049,0.0001981150016945321,0.17205142974853516,True
593,82,4.2959409662032915,0.000182987998414319,0.17205142974853516,True
594,208,10.88020525445104,0.00018529500084696338,0.1720590591430664,True
595,129,6.336942534050372,0.00018248999913339503,0.1720590591430664,True
596,77,77.44776592421144,0.00020001600205432624,0.1721658706665039,True
597,159,9.177225241007484,0.00018357400040258653,0.17205142974853516,True
598,135,7.021459700479127,0.00019306299873278476,0.17206668853759766,True
599,112,9.803270909144192,0.00025316000028396957,0.17205142974853516,True
600,135,3.639749445065768,0.00018352400002186187,0.17205142974853516,True
601,159,7.104883465868836,0.00019003499983227812,0.17205142974853516,True
602,60,5.4916270290908304,0.00020338500326033682,0.17205142974853516,True
603,177,10.618937466512197,0.00020669100194936618,0.1720590591430664,True
604,26,21.87262404332471,0.00023251699894899502,0.1720895767211914,True
605,165,6.953246568612457,0.00019823900220217183,0.17205142974853516,True
606,129,16.35141984842964,0.00018259100033901632,0.17205142974853516,True
607,26,6.539260126798821,0.00019366299966350198,0.17208194732666016,True
608,230,10.426227899340585,0.00019399400116526522,0.17205142974853516,True
609,267,4.895061099979093,0.00018312199972569942,0.17205142974853516,True
610,48,12.607117542076711,0.00019328499911352992,0.1720743179321289,True
611,263,6.453793392277555,0.00019930300186388195,0.1720590591430664,True
612,230,3.4119681847792407,0.000188817000889685,0.17205142974853516,True
613,220,7.078251643509439,0.0001865880003606435,0.1720590591430664,True
614,128,6.938803982613184,0.00018953300241264515,0.1720590591430664,True
615,143,4.0901055037674405,0.00019939999765483662,0.17205142974853516,True
616,183,3.226054811560739,0.00020792500072275288,0.17205142974853516,True
617,143,4.711886885252771,0.00018653699953574687,0.17205142974853516,True
618,135,3.5903575872136027,0.0001931770020746626,0.17205142974853516,True
619,177,42.43749489379741,0.00019359599900781177,0.1721048355102539,True
620,230,2.6681442847007713,0.00019878300008713268,0.17205142974853516,True
621,129,5.286856211381294,0.00019936000171583146,0.17205142974853516,True
622,57,3.424961767323973,0.00018337300207349472,0.1720590591430664,True
623,135,4.0027037106883085,0.00020200199651299044,0.17205142974853516,True
624,263,4.597897233930939,0.00018220399942947552,0.17205142974853516,True
625,244,7.420817144263847,0.00021441400167532265,0.1720743179321289,True
626,290,19.588452532575666,0.00021834899962414056,0.17206668853759766,True
627,143,3.6387854610725037,0.00020423300156835467,0.17205142974853516,True
628,17,7.720490279331977,0.00020591499924194068,0.1721506118774414,True
629,76,10.825246287988152,0.00018956400163006037,0.17206668853759766,True
630,47,10.602725540146045,0.0001834110007621348,0.17206668853759766,True
631,183,2.507323264779958,0.00019249300021328963,0.17205142974853516,True
632,136,16.34834521833709,0.00019294899902888574,0.17206668853759766,True
633,246,2.9053600646507105,0.0001834739996411372,0.17205142974853516,True
634,263,6.414942651190705,0.0001832449997891672,0.1720590591430664,True
635,267,16.214908622364774,0.00018559100135462359,0.17205142974853516,True
636,174,4.6301361801569945,0.00018520599769544788,0.17205142974853516,True
637,244,3.20676832386857,0.0001836299998103641,0.17205142974853516,True
638,244,8.266983909193542,0.00020160299754934385,0.17205142974853516,True
639,97,6.658867496490678,0.00018490399816073477,0.1720590591430664,True
640,230,4.752249647074658,0.00020488599693635479,0.17205142974853516,True
641,230,5.4884765737863885,0.00019669399989652447,0.17205142974853516,True
642,17,2.4326354658884957,0.00019616699864855036,0.1721353530883789,True
643,135,6.185689570152997,0.00018335300046601333,0.17205142974853516,True
644,135,4.974171464134582,0.00018470500071998686,0.17205142974853516,True
645,159,6.063148635107281,0.00018583400014904328,0.1720590591430664,True
646,143,1.316016992902647,0.00018778899902827106,0.17205142974853516,True
647,135,6.8659339444597896,0.0002268410025862977,0.1720590591430664,True
648,230,4.888586035753695,0.00018105599883710966,0.17205142974853516,True
649,138,31.271042424916107,0.00019980200158897787,0.17211246490478516,True
650,76,7.920287663440391,0.00018339199959882535,0.17205142974853516,True
651,230,6.333888460252892,0.00018733500110101886,0.1720590591430664,True
652,26,19.84116850983068,0.0001923039999383036,0.1720895767211914,True
653,47,15.345629297479666,0.00018560299940872937,0.1720590591430664,True
654,135,4.337384538294453,0.00018662300135474652,0.17206668853759766,True
655,135,3.2802763353501136,0.00020725200010929257,0.17205142974853516,True
656,230,7.145812235669237,0.00018144500063499436,0.17205142974853516,True
657,290,5.20786469639593,0.00018241300131194293,0.17205142974853516,True
658,244,8.482171114652601,0.00019524099843692966,0.1720590591430664,True
659,196,11.12933400429497,0.0001859660005720798,0.1720590591430664,True
660,135,3.555036659213213,0.0001844020007411018,0.17205142974853516,True
661,17,3.996311399508273,0.00019353300012880936,0.1721353530883789,True
662,290,6.194269354617996,0.00018750500021269545,0.17206668853759766,True
663,26,21.061165189827587,0.00018529500084696338,0.17209720611572266,True
664,112,7.591273826481901,0.00018451399955665693,0.17206668853759766,True
665,183,4.984280470584779,0.00019243600036134012,0.17205142974853516,True
666,220,5.992473948164876,0.00018241900033899583,0.1720590591430664,True
667,267,4.305717396987013,0.00018285500118508935,0.17205142974853516,True
668,112,9.207357978143973,0.00018302099852007814,0.1720590591430664,True
669,26,26.071497133431887,0.00019413900008657947,0.1721048355102539,True
670,237,3.8265261214564577,0.000188355003047036,0.17205142974853516,True
671,17,4.3191694247923715,0.00019510499987518415,0.1721353530883789,True
672,112,7.8068642397134855,0.00018599199756863527,0.1720590591430664,True
673,138,27.81479836933881,0.00020092600243515335,0.1720895767211914,True
674,163,8.085019201263073,0.00022803599858889356,0.17206668853759766,True
675,48,12.126250059512683,0.00020350200065877289,0.1720743179321289,True
676,149,3.949095994340292,0.00019991299996036105,0.17205142974853516,True
677,77,20.631971283734035,0.00018392200217931531,0.17206668853759766,True
678,230,2.4475196070695024,0.00019717599934665486,0.17205142974853516,True
679,135,7.941697540000377,0.00019160599913448095,0.1720743179321289,True
680,276,12.31233464373891,0.00020864399994025007,0.17206668853759766,True
681,55,11.630817078226377,0.00018519899822422303,0.17205142974853516,True
682,26,13.897420180864975,0.00018770500173559412,0.17208194732666016,True
683,206,9.080854772171438,0.00020930899700033478,0.1720590591430664,True
684,149,6.5232798962535945,0.00019341699953656644,0.1720590591430664,True
685,234,7.342709084622361,0.00018520300000091083,0.1720590591430664,True
686,149,7.108145591068959,0.00019537399930413812,0.1720590591430664,True
687,230,9.805867404399258,0.0001837210002122447,0.1720590591430664,True
688,174,2.468364786728495,0.00018457799887983128,0.17205142974853516,True
689,270,4.3146630982704846,0.00022667599841952324,0.17205142974853516,True
690,290,11.262974192589315,0.00018556200302555226,0.1720590591430664,True
691,174,13.619945494908334,0.00019971899746451527,0.17206668853759766,True
692,26,18.31551935217143,0.00022290400011115707,0.1720895767211914,True
693,27,9.868483054688685,0.00018788799934554845,0.1720895767211914,True
694,135,6.977698623604092,0.000192782001249725,0.1720590591430664,True
695,17,6.025336935713746,0.00018689699936658144,0.17214298248291016,True
696,176,5.496315006451953,0.00019599700317485258,0.1720590591430664,True
697,183,3.5728073406379597,0.0001837599993450567,0.17205142974853516,True
698,263,15.39846908854876,0.00020401400252012536,0.17206668853759766,True
699,230,10.654725203195001,0.00018272799934493378,0.1720590591430664,True
700,143,5.893083175365362,0.000181685001734877,0.17205142974853516,True
701,220,7.387993270535445,0.00018394699873169884,0.1720590591430664,True
702,165,11.013562607505706,0.00018582799748401158,0.17205142974853516,True
703,129,3.791985636020108,0.00018283100143889897,0.17205142974853516,True
704,128,3.1509075697480795,0.00018629300029715523,0.17205142974853516,True
705,17,6.767886295254555,0.00019875400175806135,0.17214298248291016,True
706,97,8.111753700061868,0.00018576200091047212,0.1720590591430664,True
707,57,3.2990059699451972,0.00018225199892185628,0.17205142974853516,True
708,26,16.34001587364565,0.0002169799990952015,0.1720895767211914,True
709,177,12.749939184851256,0.0001885819983726833,0.1720590591430664,True
710,176,11.187792667193149,0.0001919999995152466,0.1720590591430664,True
711,57,7.77752196421463,0.00019165799676557072,0.1720590591430664,True
712,129,16.788062393738112,0.00018326099961996078,0.17206668853759766,True
713,64,10.789171875003909,0.00018320500021218322,0.17205142974853516,True
714,17,3.825578745489207,0.000213108000025386,0.1721353530883789,True
715,135,4.427139408729997,0.0002060369988612365,0.17205142974853516,True
716,88,7.201376917722381,0.0001934140018420294,0.1720590591430664,True
717,112,4.9571244664840854,0.0001902330004668329,0.17205142974853516,True
718,128,10.501732613859577,0.00019259100008639507,0.17206668853759766,True
719,149,11.405958802475899,0.00018354199710302055,0.17206668853759766,True
720,57,7.062359595489978,0.0002106320025632158,0.17205142974853516,True
721,138,25.666296452131128,0.0001865110025391914,0.1720743179321289,True
722,238,6.317943615789488,0.0001830099972721655,0.17205142974853516,True
723,82,3.417948430934661,0.00018355599968344904,0.17205142974853516,True
724,244,3.097194232430958,0.00018174700016970746,0.17205142974853516,True
725,17,8.027413709739502,0.00019739900017157197,0.17214298248291016,True
726,159,18.749178429220706,0.00018552199981058948,0.17206668853759766,True
727,220,3.253305342521276,0.00018647500110091642,0.17205142974853516,True
728,97,7.316617124023184,0.0001899130002129823,0.1720590591430664,True
729,26,8.278586898019322,0.00018790199828799814,0.17208194732666016,True
730,230,3.5515495718927785,0.00018238699703942984,0.17205142974853516,True
731,149,7.151161740603923,0.00019766200057347305,0.1720590591430664,True
732,27,7.953813790722398,0.00018570999964140356,0.17208194732666016,True
733,143,4.810426127618725,0.00019164300101692788,0.17205142974853516,True
734,244,5.621097560689706,0.00018513200120651163,0.1720590591430664,True
735,135,4.253081772819561,0.00018138999803340994,0.17205142974853516,True
736,244,7.109725260970495,0.00019151100059389137,0.17206668853759766,True
737,234,13.157457648459626,0.0001850080006988719,0.17206668853759766,True
738,17,4.537254977263957,0.00019111599976895377,0.17214298248291016,True
739,143,7.4618288664071315,0.00018790200192597695,0.1720590591430664,True
740,273,4.470097313305714,0.00019008899835171178,0.17206668853759766,True
741,183,3.1410805267469737,0.00018910099970526062,0.17205142974853516,True
742,138,35.00195120195433,0.00019216700093238614,0.1721048355102539,True
743,230,6.131640657157501,0.00018469499991624616,0.1720590591430664,True
744,129,8.406894519894989,0.00019058399993809871,0.1720590591430664,True
745,183,4.233176089450275,0.0001823149978008587,0.17205142974853516,True
746,176,11.351323743733534,0.00018372799968346953,0.17206668853759766,True
747,77,63.11402103499584,0.000210745998629136,0.1721353530883789,True
748,64,7.550864922478784,0.00018267699852003716,0.17205142974853516,True
749,143,6.369772953101298,0.00018248999913339503,0.1720590591430664,True
750,150,28.101230646326314,0.000184630996955093,0.17206668853759766,True
751,276,12.153362801918489,0.00018179299877374433,0.1720590591430664,True
752,273,10.31669024983086,0.00018254300084663555,0.1720590591430664,True
753,183,7.166296980510155,0.000196976001461735,0.17205142974853516,True
754,47,16.52693606582884,0.00019026299924007617,0.17206668853759766,True
755,64,4.784099086811515,0.00018716399790719151,0.17205142974853516,True
756,76,7.496318911693971,0.00018552600158727728,0.17206668853759766,True
757,230,4.557405425702699,0.0001927699995576404,0.17205142974853516,True
758,238,1.8872467404554152,0.00019091899957857095,0.17205142974853516,True
759,165,5.373766809209058,0.00018644399824552238,0.1720590591430664,True
760,270,10.162619059716565,0.0001956369997060392,0.17206668853759766,True
761,109,7.421132549873616,0.00018278200150234625,0.1720590591430664,True
762,82,4.0982261653583,0.00018511400048737414,0.17205142974853516,True
763,230,8.080856653567535,0.00020383800074341707,0.17206668853759766,True
764,246,6.239991727937772,0.00018895900211646222,0.1720590591430664,True
765,135,3.402874713891447,0.00018272899978910573,0.17205142974853516,True
766,109,4.47918218440074,0.00018450599964126013,0.17205142974853516,True
767,17,6.019003398217279,0.00018596799782244489,0.1721353530883789,True
768,60,8.863440578487074,0.00019589399744290859,0.1720743179321289,True
769,128,12.163127599071203,0.00018606700177770108,0.1720743179321289,True
770,243,5.942382283995353,0.00018329399972571991,0.17205142974853516,True
771,135,3.5817339242073523,0.00019529199926182628,0.17205142974853516,True
772,183,2.5350777983785266,0.0001982300018426031,0.17205142974853516,True
773,26,8.408343562391812,0.00018672100122785196,0.17208194732666016,True
774,129,5.164433683058231,0.000185267002962064,0.17205142974853516,True
775,82,8.89555534538604,0.000183710999408504,0.1720590591430664,True
776,290,10.252508253756206,0.00018490799993742257,0.1720590591430664,True
777,135,4.463380282267717,0.00018102299873135053,0.1720590591430664,True
778,138,125.21757276248135,0.000183864998689387,0.17208194732666016,True
779,143,1.91232167852093,0.00018421200002194382,0.17205142974853516,True
780,244,7.934454235027802,0.00018487299894331954,0.1720590591430664,True
781,77,78.28843458734902,0.00019949499983340502,0.1721963882446289,True
782,143,9.666792194063921,0.00018580899995868094,0.1720590591430664,True
783,64,10.780552299323878,0.00019350100046722218,0.1720590591430664,True
784,135,6.266894480616283,0.0001860819975263439,0.1720743179321289,True
785,176,6.158120501011531,0.0001821610021579545,0.17205142974853516,True
786,57,7.536801592767769,0.00018251400251756422,0.1720590591430664,True
787,150,27.36835808479878,0.00020212899835314602,0.17209720611572266,True
788,174,3.42162435977578,0.00018335300046601333,0.17205142974853516,True
789,64,5.066681272639981,0.00018955300038214773,0.17205142974853516,True
790,244,2.2788581906610053,0.0001835449984355364,0.17205142974853516,True
791,76,2.8879406525675533,0.0001980239976546727,0.17205142974853516,True
792,76,5.239447031105068,0.00018421499771648087,0.17205142974853516,True
793,183,1.9993197129629094,0.00021538799774134532,0.17205142974853516,True
794,290,7.1516787735337175,0.00018471699877409264,0.17205142974853516,True
795,263,8.425909100022617,0.00019799900110228918,0.17205142974853516,True
796,60,7.35705472697342,0.00019360800069989637,0.17206668853759766,True
797,135,3.5989629875112437,0.00019049099864787422,0.17205142974853516,True
798,135,5.766352565036146,0.00020451000091270544,0.1720590591430664,True
799,263,6.051643206512319,0.00021350899987737648,0.17205142974853516,True
800,214,3.107386669393017,0.00018420000196783803,0.17205142974853516,True
801,230,11.288449033938793,0.00018701199951465242,0.17206668853759766,True
802,57,4.686029784609777,0.00018549499873188324,0.17205142974853516,True
803,177,14.410175485391424,0.00018406600065645762,0.1720590591430664,True
804,177,50.198136052999196,0.00019028899987461045,0.17214298248291016,True
805,26,7.0396999223775,0.00020749699979205616,0.17208194732666016,True
806,57,3.010653403991016,0.00018394700236967765,0.17205142974853516,True
807,183,1.6895348355208417,0.00018242300211568363,0.17205142974853516,True
808,230,7.13922683040422,0.00018565700156614184,0.1720590591430664,True
809,76,9.542114919333898,0.00019129000065731816,0.17206668853759766,True
810,183,4.1185687308140535,0.00023228999998536892,0.17205142974853516,True
811,60,5.841163434334946,0.00018206499953521416,0.1720590591430664,True
812,143,10.991884559578665,0.0001993140031117946,0.1720590591430664,True
813,17,7.242311130645846,0.00018717499915510416,0.1721353530883789,True
814,230,1.7002171769128147,0.00018385200019110925,0.17205142974853516,True
815,97,11.201636607641142,0.00018490900038159452,0.17206668853759766,True
816,183,10.157312618367921,0.00018978600201080553,0.1720743179321289,True
817,230,6.763220211984174,0.00018147899754694663,0.1720590591430664,True
818,206,14.799908906343763,0.00018373599959886633,0.1720590591430664,True
819,129,6.093914174468875,0.0001825359977374319,0.17206668853759766,True
820,129,12.384205918991052,0.00018570999964140356,0.1720590591430664,True
821,220,7.225384433306979,0.00019669299945235252,0.1720590591430664,True
822,230,5.222629509019563,0.00019714100199053064,0.1720590591430664,True
823,112,6.460727558867882,0.00020731900076498277,0.1720590591430664,True
824,230,3.198366248724252,0.00021763199765700847,0.17205142974853516,True
825,230,6.954075028618628,0.00019023600179934874,0.17205142974853516,True
826,183,3.8567058121237094,0.00018834000002243556,0.17205142974853516,True
827,112,10.973093710230108,0.00019461500050965697,0.1720590591430664,True
828,214,5.871412858028707,0.00018579300012788735,0.17205142974853516,True
829,88,11.96435335360239,0.00019309100025566295,0.17206668853759766,True
830,234,7.528780965590677,0.0002195350025431253,0.17205142974853516,True
831,135,4.477169310128464,0.000198923000425566,0.17205142974853516,True
832,17,6.69506380358497,0.00020878500072285533,0.17214298248291016,True
833,47,26.606995473463954,0.000200071997824125,0.1720743179321289,True
834,82,6.508664124961946,0.00018271999942953698,0.17205142974853516,True
835,183,2.382639828577504,0.00019303699809825048,0.17205142974853516,True
836,57,9.001359716008125,0.00018621100025484338,0.1720590591430664,True
837,183,3.631902230047179,0.00018453899974701926,0.17205142974853516,True
838,112,9.336567612541943,0.00019925800006603822,0.1720590591430664,True
839,220,3.5328750667827253,0.00020227300046826713,0.17206668853759766,True
840,183,6.341912406295432,0.0001890720013761893,0.17205142974853516,True
841,159,7.859068684154408,0.0005261660007818136,0.1720590591430664,True
842,76,4.678688801267988,0.0001837640011217445,0.17205142974853516,True
843,246,17.483824790432145,0.00019233399871154688,0.1720590591430664,True
844,290,9.080628762457145,0.00019765000251936726,0.1720590591430664,True
845,135,3.0167625464207535,0.00019934399824705906,0.17205142974853516,True
846,244,6.308211217141294,0.00018568499945104122,0.1720590591430664,True
847,176,25.144845409898156,0.00018597099915496074,0.17206668853759766,True
848,290,7.1874669772496285,0.00018533099864725955,0.1720590591430664,True
849,273,12.301224716502396,0.00018409300173516385,0.1720590591430664,True
850,183,7.825521445691361,0.00018591999833006412,0.17206668853759766,True
851,176,2.447014807857529,0.00018507300046621822,0.17205142974853516,True
852,219,107.55813497971674,0.0002062840030703228,0.17224979400634766,True
853,214,5.855465607845936,0.00018549299784353934,0.17205142974853516,True
854,208,8.88997876322955,0.00019405499915592372,0.17206668853759766,True
855,135,6.453478924701911,0.00018313400141778402,0.17205142974853516,True
856,136,4.37100724457444,0.00021128500156919472,0.17205142974853516,True
857,183,3.7169208508193163,0.00018530400120653212,0.17205142974853516,True
858,64,6.782353497515481,0.0001845560000219848,0.1720590591430664,True
859,88,7.1143581234261095,0.00018475699835107662,0.1720590591430664,True
860,234,7.524360492588689,0.00019425199934630655,0.17205142974853516,True
861,237,7.145271078227004,0.00018237900076201186,0.1720590591430664,True
862,88,23.30389346189417,0.0001844020007411018,0.17206668853759766,True
863,129,10.52262889445982,0.00018861399803427048,0.1720590591430664,True
864,177,23.288008652731698,0.0001862050012277905,0.1720895767211914,True
865,112,5.015497109716829,0.00020940399917890318,0.1720590591430664,True
866,273,8.20236814395173,0.00021880499843973666,0.1720590591430664,True
867,234,3.692849854434512,0.0001950090008904226,0.17205142974853516,True
868,76,9.562571362954923,0.00019487900135573,0.1720590591430664,True
869,183,3.6767205868611104,0.00018569599706097506,0.17205142974853516,True
870,208,8.451167080373859,0.00018886199904954992,0.1720590591430664,True
871,136,21.31390767632808,0.00018507999993744306,0.1720590591430664,True
872,76,10.54478816606494,0.00018932000239146873,0.17206668853759766,True
873,234,15.035011792767698,0.00020458499784581363,0.17205142974853516,True
874,135,1.7342080588374897,0.00019073499788646586,0.17205142974853516,True
875,82,6.302827963371635,0.00018891700165113434,0.17205142974853516,True
876,82,1.7273703299929641,0.00019451700063655153,0.17205142974853516,True
877,237,9.694314956445941,0.00023639299979549833,0.1720743179321289,True
878,17,7.092487187698978,0.00018576100046630017,0.17214298248291016,True
879,64,4.408560660052055,0.0001872749999165535,0.17205142974853516,True
880,183,9.629860014536883,0.00019890200201189145,0.1720590591430664,True
881,230,6.298355209201357,0.00018313100008526817,0.17206668853759766,True
882,214,3.466886636400663,0.00018197000099462457,0.17205142974853516,True
883,143,5.169525276070764,0.00021187700258451514,0.17205142974853516,True
884,220,2.8148879045991895,0.0001920870017784182,0.1720590591430664,True
885,163,21.273505695248346,0.000189772999874549,0.1720895767211914,True
886,230,7.928146601739637,0.00019150500156683847,0.17206668853759766,True
887,138,17.877802434971066,0.0001878139992186334,0.17209720611572266,True
888,77,53.278828042185054,0.00020393500017235056,0.1721658706665039,True
889,127,90.24393451580968,0.00022031399930710904,0.17218875885009766,True
890,138,120.7542890723367,0.00019745399913517758,0.17211246490478516,True
891,183,6.7077580573523115,0.00019046099987463094,0.17205142974853516,True
892,273,6.449065110628283,0.00025485300284344703,0.17206668853759766,True
893,60,13.135725964231293,0.00019568399875424802,0.1720743179321289,True
894,290,15.779635630586439,0.00018848000036086887,0.17208194732666016,True
895,17,10.54055093898543,0.0001963520007848274,0.1721658706665039,True
896,183,7.896626676947069,0.00018938599896500818,0.1720590591430664,True
897,244,6.962734079413782,0.0001992090001294855,0.17205142974853516,True
898,136,9.629892970423473,0.0002053139978670515,0.17206668853759766,True
899,48,9.703729120791492,0.00018498500139685348,0.1720590591430664,True
900,237,5.451936357115813,0.0001867380015028175,0.1720590591430664,True
901,60,4.733748680577664,0.00018419499974697828,0.17205142974853516,True
902,183,5.4361532840623505,0.00018215000091004185,0.17205142974853516,True
903,159,6.0313858610862106,0.00018221200298285112,0.17205142974853516,True
904,273,6.068219142921858,0.00018651199934538454,0.17205142974853516,True
905,129,12.862452884630631,0.0001889689992822241,0.1720590591430664,True
906,129,6.982038428017473,0.00018252900190418586,0.17205142974853516,True
907,230,6.780638257140028,0.00020289799795136787,0.17205142974853516,True
908,237,5.330688190213269,0.00018668499978957698,0.1720590591430664,True
909,351,18.97434054492466,0.00018645999807631597,0.17206668853759766,False
910,27,17.78471968274469,0.0002024710011028219,0.1720895767211914,True
911,230,4.215964480426631,0.000182866002433002,0.17205142974853516,True
912,143,4.815389994662002,0.00018320600065635517,0.17205142974853516,True
913,26,27.200854551015073,0.00018723699758993462,0.17211246490478516,True
914,143,5.762819982062459,0.0001819060016714502,0.17205142974853516,True
915,138,86.02995288455737,0.0002040799990936648,0.17217350006103516,True
916,128,13.48318470559308,0.00018577000082586892,0.1720743179321289,True
917,129,22.781513034888075,0.0002104479972331319,0.1720590591430664,True
918,27,9.126256113503215,0.0001855529990280047,0.17208194732666016,True
919,88,8.724972197806188,0.00018707300114328973,0.1720590591430664,True
920,17,2.340994066316358,0.0001938700006576255,0.1721353530883789,True
921,270,3.6542898639020205,0.00019320799765409902,0.1720590591430664,True
922,135,8.329962076711235,0.00021369000023696572,0.17205142974853516,True
923,135,3.604937897665852,0.00018493400057195686,0.17205142974853516,True
924,109,6.101373184790073,0.00018793299750541337,0.17205142974853516,True
925,183,8.197022705614664,0.00018862599972635508,0.1720590591430664,True
926,76,7.798952630234843,0.00018676699983188882,0.17205142974853516,True
927,26,9.796693378227099,0.00019551899822545238,0.17208194732666016,True
928,128,6.982862641833654,0.0001900040006148629,0.1720590591430664,True
929,109,3.79084280194736,0.00022769499992136844,0.17205142974853516,True
930,244,4.696229388856237,0.00020231400048942305,0.17205142974853516,True
931,290,10.64391358383341,0.0001870179985417053,0.17206668853759766,True
932,237,12.619215491358538,0.00021732299865107052,0.17208194732666016,True
933,183,6.300682295766386,0.000510477002535481,0.1720590591430664,True
934,183,4.708662679517866,0.0001839260003180243,0.17205142974853516,True
935,26,6.116204824925827,0.0001895140012493357,0.17208194732666016,True
936,17,14.836950948113726,0.00018839999756892212,0.1721658706665039,True
937,17,2.9531876389129357,0.00019373400209588,0.1721353530883789,True
938,290,5.920600280712599,0.00019643400082713924,0.1720590591430664,True
939,76,17.1802487422308,0.00019149400031892583,0.1720895767211914,True
940,88,18.553950375438262,0.00018869300038204528,0.1720590591430664,True
941,57,4.090825110039167,0.000186269997357158,0.17205142974853516,True
942,48,10.233725620780563,0.00019582599998102523,0.1720590591430664,True
943,165,8.047286273922557,0.00020335700173745863,0.1720590591430664,True
944,214,29.261012480156193,0.00019360500300535932,0.1720895767211914,True
945,60,17.552698862678625,0.00032131500120158307,0.1720743179321289,True
946,64,4.7124364360389706,0.00019539300046744756,0.17205142974853516,True
947,109,6.712762156226384,0.00018458500198903494,0.1720590591430664,True
948,149,6.959619619711944,0.00018124099733540788,0.1720590591430664,True
949,77,17.29479515205925,0.00019613899712567218,0.17206668853759766,True
950,176,8.031613573168258,0.0001859399999375455,0.1720590591430664,True
951,273,6.789756480238727,0.00019225299911340699,0.1720590591430664,True
952,238,1.6420553559122493,0.00018723500033956952,0.17205142974853516,True
953,78,15.631574196613702,0.0001999669984797947,0.17206668853759766,True
954,143,2.575300810487329,0.00019050400078413077,0.17205142974853516,True
955,88,14.306574595579859,0.00019606700152507983,0.17206668853759766,True
956,109,7.1237619671152785,0.00024387599842157215,0.17205142974853516,True
957,183,7.271244354018265,0.00019045299995923415,0.17205142974853516,True
958,76,8.47743436973467,0.0003864660029648803,0.17205142974853516,True
959,273,9.479890306477674,0.00018290599837200716,0.1720590591430664,True
960,77,21.542434560200626,0.0006863189992145635,0.17208194732666016,True
961,17,8.211915723346834,0.00020754999786731787,0.17215824127197266,True
962,60,15.679617704431655,0.00018383099813945591,0.1720743179321289,True
963,76,7.960206758080252,0.00018974799968418665,0.1720590591430664,True
964,237,6.466929799139106,0.0001843860009103082,0.1720590591430664,True
965,76,6.987071648200395,0.00018903299860539846,0.1720590591430664,True
966,230,2.8836854218317556,0.0001811420006561093,0.17205142974853516,True
967,57,4.889425458997343,0.00018369399913353845,0.17205142974853516,True
968,238,4.010261194114574,0.00020207499983371235,0.17205142974853516,True
969,237,7.006592420723298,0.00018515700139687397,0.17206668853759766,True
970,135,2.618832649373726,0.00019524200251908042,0.17205142974853516,True
971,57,10.341184325778094,0.00018662300135474652,0.17206668853759766,True
972,290,11.461400816977902,0.00019127399718854576,0.1720590591430664,True
973,129,10.498490150203224,0.00018950099911307916,0.17206668853759766,True
974,230,7.105283463026951,0.0001830750006774906,0.17205142974853516,True
975,159,14.47295601426935,0.00018513100076233968,0.1720590591430664,True
976,159,10.152556837976665,0.00018450800052960403,0.1720590591430664,True
977,149,4.846984802881956,0.00020448400027817115,0.17205142974853516,True
978,220,7.087936135014266,0.00018803599959937856,0.1720590591430664,True
979,270,7.245498612017319,0.00018623299911268987,0.1720590591430664,True
980,159,13.948280782390592,0.00019363600222277455,0.1720743179321289,True
981,135,5.709110297484728,0.00018305000048712827,0.17205142974853516,True
982,150,8.297191999752767,0.00019538000196916983,0.1720590591430664,True
983,230,5.398463284513878,0.00018596500012790784,0.1720590591430664,True
984,138,29.287214261100157,0.00019118099953630008,0.17209720611572266,True
985,143,8.102108826533776,0.0001836949995777104,0.1720590591430664,True
986,220,7.450341531819933,0.0001863329998741392,0.1720590591430664,True
987,17,7.996223627315593,0.00019470000188448466,0.17214298248291016,True
988,230,4.54930962235221,0.00018960000306833535,0.17205142974853516,True
989,208,6.872660773940996,0.00018869199993787333,0.1720743179321289,True
990,60,18.05584716731382,0.0001852790010161698,0.1720743179321289,True
991,214,11.091959134825057,0.00020693500118795782,0.1720743179321289,True
992,159,8.667087813990431,0.00019995800175820477,0.1720590591430664,True
993,214,4.1540202133995985,0.0001827870000852272,0.1720590591430664,True
994,60,3.7892544868793947,0.00018900999930338003,0.17205142974853516,True
995,177,27.886156032176583,0.00018964699847856537,0.1721048355102539,True
996,17,8.752085074098819,0.00019887799862772226,0.1721506118774414,True
997,77,14.691319436349973,0.00018598099995870143,0.1720743179321289,True
998,159,14.749637608770758,0.00018762000036076643,0.17209720611572266,True
999,26,16.618586961052596,0.00019951400099671446,0.17209720611572266,True
1000,97,13.102270110755358,0.00018734699915512465,0.17208194732666016,True
1001,165,6.39527277895954,0.0001844119979068637,0.17205142974853516,True
1002,26,8.503522124847452,0.00018717700004344806,0.17208194732666016,True
1003,234,5.2367210113927305,0.0002110030000039842,0.17205142974853516,True
1004,263,12.026208965256913,0.00018512400129111484,0.1720590591430664,True
1005,214,8.216608711180983,0.00018447000184096396,0.17206668853759766,True
1006,234,7.620962618158143,0.0001823249986045994,0.1720590591430664,True
1007,237,13.452481824290265,0.00018568400264484808,0.17205142974853516,True
1008,273,8.15330964718623,0.00020344400036265142,0.1720590591430664,True
1009,214,9.107959345691246,0.0001995920029003173,0.17206668853759766,True
1010,77,54.15297870289465,0.00019811799938906915,0.17214298248291016,True
1011,177,71.64460009577544,0.00019366900232853368,0.1721658706665039,True
1012,208,13.151269205277215,0.00019662200065795332,0.1720743179321289,True
1013,183,8.69957234528345,0.00018497799828764983,0.17206668853759766,True
1014,64,5.951398709355991,0.0001894349989015609,0.17205142974853516,True
1015,238,17.139689979925993,0.00018292200184077956,0.17205142974853516,True
1016,183,8.395094143171674,0.00019505299860611558,0.17206668853759766,True
1017,149,7.154137576147218,0.0002003740009968169,0.1720590591430664,True
1018,183,4.755242962609819,0.00018247600019094534,0.17205142974853516,True
1019,112,11.62508552952333,0.00018368000019108877,0.1720590591430664,True
1020,76,6.147203241241165,0.00018257899864693172,0.17205142974853516,True
1021,48,12.057418549445192,0.00018614299915498123,0.17206668853759766,True
1022,206,7.527499979826277,0.00019219000023440458,0.1720590591430664,True
1023,234,5.4443823130139,0.00018398999964119866,0.17205142974853516,True
1024,150,17.701583406252894,0.00018856499809771776,0.1720895767211914,True
1025,230,6.992407263445342,0.00019755299945245497,0.1720590591430664,True
1026,237,3.1115905139850977,0.00018483200256014243,0.17205142974853516,True
1027,267,4.170819241252824,0.00018286300110048614,0.17205142974853516,True
1028,237,6.907062989337679,0.00019242000053054653,0.1720590591430664,True
1029,159,12.993859734887947,0.00019820299712591805,0.1720743179321289,True
1030,230,4.375945535429096,0.00020103200222365558,0.17205142974853516,True
1031,230,3.0842530384235016,0.00018326600184082054,0.17205142974853516,True
1032,109,3.6586486759039785,0.00018497599739930592,0.17206668853759766,True
1033,237,6.966080301303287,0.00020281099932617508,0.1720590591430664,True
1034,230,1.6838661059229876,0.00018182799976784736,0.17205142974853516,True
1035,263,11.823818915089507,0.00018690100114326924,0.1720590591430664,True
1036,237,6.569682652492868,0.00018909999926108867,0.1720590591430664,True
1037,77,105.01411934551925,0.00020518900055321865,0.17218875885009766,True
1038,57,7.510427372329806,0.0001942689996212721,0.1720590591430664,True
1039,273,10.73318475539534,0.00020026499987579882,0.17206668853759766,True
1040,244,8.752398751952326,0.00020196700279484503,0.17206668853759766,True
1041,64,8.294756404603328,0.00021027899856562726,0.17205142974853516,True
1042,60,8.888433094748216,0.00019201499890186824,0.1720590591430664,True
1043,127,12.156199499147895,0.0001830219989642501,0.1720590591430664,True
1044,128,5.41188642299241,0.0002040190011030063,0.1720590591430664,True
1045,206,4.303006798423649,0.00018375800209469162,0.17205142974853516,True
1046,60,5.022314918057661,0.00018768099835142493,0.17205142974853516,True
1047,230,2.019974902389731,0.0001833889982663095,0.17205142974853516,True
1048,77,21.02516355899409,0.00019783600146183744,0.1720895767211914,True
1049,220,4.05614754469495,0.00018730300143943168,0.17205142974853516,True
1050,183,2.9453508805179327,0.00019521699869073927,0.17205142974853516,True
1051,109,4.7597713585762875,0.0001872769971669186,0.17205142974853516,True
1052,48,5.740836200100598,0.00019844399866997264,0.17205142974853516,True
1053,60,5.500318077660927,0.0001902330004668329,0.1720590591430664,True
1054,57,4.11269355624644,0.00020444899928406812,0.17205142974853516,True
1055,55,4.704742987810092,0.00021203600044827908,0.17205142974853516,True
1056,112,3.127622813454428,0.00020796699755010195,0.17205142974853516,True
1057,135,3.7522088606600494,0.00020786499953828752,0.17205142974853516,True
1058,230,6.073967082906292,0.00018100699890055694,0.17205142974853516,True
1059,112,6.04854024980787,0.00018289900253876112,0.1720590591430664,True
1060,27,7.446237970087893,0.0001864260011643637,0.17208194732666016,True
1061,60,12.248095409564739,0.0001855650007200893,0.1720743179321289,True
1062,243,6.47114111755843,0.00018488100249669515,0.17205142974853516,True
1063,196,4.800194595239975,0.0005904839999857359,0.17205142974853516,True
1064,267,5.000063420496668,0.0001844990001700353,0.17205142974853516,True
1065,77,93.33660304405569,0.00021263099915813655,0.17220401763916016,True
1066,135,6.56004768749984,0.00019329499991727062,0.17206668853759766,True
1067,159,6.697968763381216,0.0001836039991758298,0.1720590591430664,True
1068,183,4.561658577787006,0.00021172900233068503,0.17205142974853516,True
1069,135,3.126549050833158,0.00019126800179947168,0.17205142974853516,True
1070,17,7.543589955966586,0.00018925099720945582,0.17214298248291016,True
1071,150,8.53191844203612,0.000201932001800742,0.17206668853759766,True
1072,88,4.219941139749004,0.00023957500161486678,0.17205142974853516,True
1073,263,7.891589150474005,0.00018641300266608596,0.1720590591430664,True
1074,220,6.979323296416112,0.00018265200196765363,0.17205142974853516,True
1075,177,28.896834476216128,0.00019003499983227812,0.17209720611572266,True
1076,143,11.893679397567823,0.00018358500165049918,0.1720590591430664,True
1077,246,5.85811897447547,0.00019514300220180303,0.17205142974853516,True
1078,280,4.114062976487677,0.00019376700220163912,0.17205142974853516,True
1079,77,56.40291399589704,0.00034832900200854056,0.1721506118774414,True
1080,230,6.566430572730613,0.00019413799964240752,0.1720590591430664,True
1081,150,17.769337585977812,0.00018445800014887936,0.1720895767211914,True
1082,263,11.306434347271837,0.00018382200141786598,0.17206668853759766,True
1083,112,6.6443065087081825,0.000188591999176424,0.17206668853759766,True
1084,290,4.560890215271221,0.0003553140013536904,0.17205142974853516,True
1085,267,4.435073672271854,0.000251540001045214,0.17205142974853516,True
1086,112,8.259949852148875,0.0001813649978430476,0.1720590591430664,True
1087,149,6.533959038843411,0.0001953190003405325,0.1720590591430664,True
1088,135,4.031029958545186,0.00018468900088919327,0.17205142974853516,True
1089,143,7.2632041912236796,0.0001831800000218209,0.1720590591430664,True
1090,129,17.815160676554093,0.00018285500118508935,0.1720590591430664,True
1091,82,5.390949027877458,0.0002043390013568569,0.1720590591430664,True
1092,76,3.724532335579572,0.0002503849973436445,0.17205142974853516,True
1093,128,2.915569158846923,0.00018269900101586245,0.17205142974853516,True
1094,138,19.427408477349022,0.00018335999993723817,0.1720590591430664,True
1095,230,3.145209637783404,0.00018109300071955658,0.17205142974853516,True
1096,230,3.0902393449764736,0.0001828419990488328,0.17205142974853516,True
1097,135,3.3467860061508183,0.0001837640011217445,0.17205142974853516,True
1098,88,6.918199004279751,0.0001836039991758298,0.17205142974853516,True
1099,47,15.508613940029816,0.00019112399968435057,0.17206668853759766,True
1100,64,5.219239267489513,0.0001834760005294811,0.17205142974853516,True
1101,136,6.195050995802255,0.00018659700072021224,0.1720590591430664,True
1102,97,8.825127644234763,0.00018582700067781843,0.1720590591430664,True
1103,76,4.110668913759588,0.0001985080016311258,0.17205142974853516,True
1104,60,7.556055032769668,0.00018935700063593686,0.1720590591430664,True
1105,135,4.8124971873627995,0.00018623199866851792,0.17205142974853516,True
1106,127,5.699702889323367,0.00018622200150275603,0.17205142974853516,True
1107,150,9.866262875414,0.00018386400188319385,0.1720590591430664,True
1108,138,10.195846013738477,0.000184243999683531,0.1720590591430664,True
1109,17,7.574390700600548,0.00019213700215914287,0.17214298248291016,True
1110,48,8.44951325010298,0.00018415000158711337,0.17206668853759766,True
1111,57,6.748017825242942,0.00018702499801293015,0.1720590591430664,True
1112,129,6.505839529614794,0.00018629500118549913,0.17205142974853516,True
1113,183,1.7866366532072495,0.00018591600019135512,0.17205142974853516,True
1114,290,10.107589239460507,0.0002007529983529821,0.1720590591430664,True
1115,276,12.426258537095748,0.00018344300042372197,0.17206668853759766,True
1116,109,2.2245510731790956,0.00018188800095231272,0.17205142974853516,True
1117,183,7.671071128501231,0.00018301700038136914,0.1720590591430664,True
1118,136,33.2084611017877,0.00018445699970470741,0.17206668853759766,True
1119,183,5.172121633662292,0.00018491700029699132,0.17205142974853516,True
1120,220,3.274226182123085,0.00018332500258111395,0.17205142974853516,True
1121,183,4.371093888801504,0.0001853520006989129,0.1720590591430664,True
1122,109,5.720852820378478,0.0001872040011221543,0.17205142974853516,True
1123,19,5.010282761532176,0.00018508799985283986,0.17205142974853516,True
1124,174,2.9743444656109865,0.00018368399832979776,0.17205142974853516,True
1125,97,6.462159938402364,0.00019661099941004068,0.17206668853759766,True
1126,57,6.515174250689404,0.00019282799985376187,0.1720590591430664,True
1127,88,8.32153030434867,0.00018540199744165875,0.1720590591430664,True
1128,215,58.0637475173465,0.0002094650008075405,0.1721506118774414,True
1129,47,14.89739895138148,0.00019153500034008175,0.1720743179321289,True
1130,230,4.485998173521623,0.00019425999926170334,0.17205142974853516,True
1131,76,6.417520013622958,0.00020021800082759,0.17205142974853516,True
1132,60,18.949534825812606,0.00018270500004291534,0.1720590591430664,True
1133,220,3.6857440977910754,0.00018647700198926032,0.17205142974853516,True
1134,238,7.048172552309114,0.00018235300012747757,0.17205142974853516,True
1135,276,13.942812154658522,0.00018356399959884584,0.1720590591430664,True
1136,135,8.803172452280066,0.00019166199854225852,0.1720590591430664,True
1137,26,11.428046853596193,0.00020358400070108473,0.1720895767211914,True
1138,76,7.46293807102531,0.00018419799744151533,0.1720590591430664,True
1139,26,12.67816721792057,0.00018361000184086151,0.1720895767211914,True
1140,183,8.78109451209357,0.0001848659994720947,0.17206668853759766,True
1141,183,5.080520128194665,0.00021641199782607146,0.17205142974853516,True
1142,88,62.7955462625827,0.00018813099813996814,0.1721200942993164,True
1143,26,11.760101003036853,0.0002590609983599279,0.1720743179321289,True
1144,234,7.592922571640285,0.00021090500013087876,0.1720590591430664,True
1145,267,6.457533218035297,0.0002217860019300133,0.1720590591430664,True
1146,26,12.486195684187503,0.00021204400036367588,0.17208194732666016,True
1147,196,4.984631611571716,0.00018298400027561001,0.1720590591430664,True
1148,237,7.206047073697675,0.0001897750007628929,0.1720590591430664,True
1149,244,6.153684215141984,0.00018264800019096583,0.17205142974853516,True
1150,60,14.188623584681181,0.0001946240008692257,0.1720743179321289,True
1151,183,2.6536430111240854,0.00020545000006677583,0.17205142974853516,True
1152,60,8.54401378284003,0.00019301599968457595,0.1720590591430664,True
1153,220,5.299867858627374,0.0002428740008326713,0.17205142974853516,True
1154,138,16.92350633784954,0.00018700400323723443,0.1720743179321289,True
1155,234,9.602618221816876,0.00018631900093168952,0.17205142974853516,True
1156,76,4.497937901820549,0.000204791002033744,0.1720590591430664,True
1157,208,6.323013176417058,0.00020383099763421342,0.17206668853759766,True
1158,159,5.904394069046464,0.00018908200217993,0.17205142974853516,True
1159,150,15.79198960712213,0.0001877270005934406,0.1720590591430664,True
1160,230,4.813947863348658,0.00018552000256022438,0.17205142974853516,True
1161,149,12.5217118487139,0.00019450900072115473,0.1720590591430664,True
1162,128,9.40880495298827,0.0006625810019613709,0.17206668853759766,True
1163,26,4.965336435601172,0.0002022280023084022,0.17208194732666016,True
1164,88,13.162938667523129,0.00019171299936715513,0.1720590591430664,True
1165,159,3.921288992521491,0.0001868050021585077,0.17205142974853516,True
1166,237,6.099412300592385,0.00018243500016978942,0.1720590591430664,True
1167,47,11.53114416781328,0.00018491399896447547,0.17205142974853516,True
1168,129,3.2331722758306336,0.0001837980016716756,0.17205142974853516,True
1169,112,5.282627138430405,0.0001847690000431612,0.1720590591430664,True
1170,263,5.993747727454729,0.00021716400078730658,0.1720590591430664,True
1171,230,4.287051572216777,0.00019376199998077936,0.17205142974853516,True
1172,230,1.5171340406692608,0.00018273300156579353,0.17205142974853516,True
1173,89,4.58386874289971,0.0001921339971886482,0.1720590591430664,True
1174,237,10.998928312202139,0.00018274200192536227,0.1720743179321289,True
1175,17,12.81261186847263,0.00019038599930354394,0.17214298248291016,True
1176,177,13.775736379939303,0.00045081699863658287,0.1720590591430664,True
1177,26,22.887370526792104,0.00018615699809743091,0.17209720611572266,True
1178,230,5.365006261060198,0.00019252100173616782,0.17205142974853516,True
1179,149,31.172434630552395,0.00020985199807910249,0.1720743179321289,True
1180,47,12.68918740604007,0.0002040840008703526,0.17206668853759766,True
1181,222,28.532877380876286,0.00019301599968457595,0.17208194732666016,True
1182,82,6.358874845790536,0.0001843029967858456,0.1720590591430664,True
1183,109,3.293200459990243,0.00018390200057183392,0.17205142974853516,True
1184,230,3.1112784055111193,0.00018435299716657028,0.17205142974853516,True
1185,77,22.3039549056228,0.00018297499991604127,0.17206668853759766,True
1186,64,8.259007304396754,0.00018205699961981736,0.1720590591430664,True
1187,127,7.387462912430016,0.00019797200002358295,0.17205142974853516,True
1188,57,3.7692600586404947,0.0001851559973147232,0.17205142974853516,True
1189,112,11.573932705943351,0.0001998369989451021,0.1720590591430664,True
1190,163,18.164335142342562,0.0001929479985847138,0.1720743179321289,True
1191,165,13.550011388643025,0.00019592599710449576,0.1720590591430664,True
1192,129,10.079445128273441,0.00019701799828908406,0.17206668853759766,True
1193,88,11.02349288134615,0.00018727799761109054,0.1720590591430664,True
1194,112,18.451788019032644,0.00018352700135437772,0.17208194732666016,True
1195,220,8.353339185677918,0.0001999830019485671,0.1720590591430664,True
1196,143,4.6556793451299425,0.00019795800108113326,0.17205142974853516,True
1197,159,8.188092967711254,0.00018421499771648087,0.17205142974853516,True
1198,183,34.96433584985759,0.0002050039984169416,0.1721048355102539,True
1199,244,6.003555687148273,0.00018314900080440566,0.17205142974853516,True
1200,27,4.5834715415013125,0.00018768899826682173,0.17208194732666016,True
1201,246,3.0221719108452434,0.00019039700055145659,0.17205142974853516,True
1202,159,9.229995915063897,0.00020433399913599715,0.1720590591430664,True
1203,109,2.9761749175519627,0.00018427999748382717,0.17205142974853516,True
1204,109,9.001339768374557,0.00018190899936598726,0.1720590591430664,True
1205,48,4.501933845296608,0.00018311500025447458,0.17205142974853516,True
1206,230,5.2595536331865675,0.00018444799934513867,0.17205142974853516,True
1207,238,6.420425877830276,0.00018969599841511808,0.1720590591430664,True
1208,183,5.190819057446272,0.00019134199828840792,0.17205142974853516,True
1209,88,7.248064184895306,0.00018310000086785294,0.1720590591430664,True
1210,82,4.886167917085527,0.00018538299991632812,0.1720590591430664,True
1211,27,25.40391692904566,0.00018736100173555315,0.17209720611572266,True
1212,88,9.056407627991373,0.0001847300009103492,0.1720590591430664,True
1213,267,4.236685871932696,0.0001829350003390573,0.17205142974853516,True
1214,220,3.7602292785720604,0.00018396899758954532,0.17205142974853516,True
1215,82,3.4190467912334537,0.00018227699911221862,0.17205142974853516,True
1216,176,2.760257458352905,0.00021125800049048848,0.17205142974853516,True
1217,176,4.516719570882281,0.0001905899989651516,0.17205142974853516,True
1218,276,7.308233317046875,0.00019239399989601225,0.1720590591430664,True
1219,138,19.995103978612086,0.00018797899974742904,0.17208194732666016,True
1220,143,1.5802554179740735,0.00019143999816151336,0.17205142974853516,True
1221,222,63.84018188492786,0.00020899599985568784,0.17214298248291016,True
1222,64,4.763156712424263,0.00018251100118504837,0.17205142974853516,True
1223,76,6.487282953666729,0.00018342800103710033,0.17205142974853516,True
1224,82,6.867385187441091,0.0001938050008902792,0.17206668853759766,True
1225,135,3.7830712639614386,0.00019389099907130003,0.17205142974853516,True
1226,183,6.635126242193073,0.00019728900224436074,0.17205142974853516,True
1227,234,6.091118415305461,0.00018565099890111014,0.17205142974853516,True
1228,17,3.9012354693348086,0.00018991199976881035,0.17214298248291016,True
1229,26,20.77602613602986,0.0002119069977197796,0.17209720611572266,True
1230,263,7.1365879851932075,0.00020335299996077083,0.17205142974853516,True
1231,263,9.4892249936766,0.00018814700160874054,0.17205142974853516,True
1232,112,32.623016527829016,0.00018909099890151992,0.1721048355102539,True
1233,27,14.082565151680669,0.0001860329975897912,0.17206668853759766,True
1234,129,13.742475499039928,0.00018261600052937865,0.17205142974853516,True
1235,64,5.929279915823971,0.00018319299852009863,0.17205142974853516,True
1236,64,7.873303572512127,0.0001846069972089026,0.17206668853759766,True
1237,17,9.438894012578578,0.0001872020002338104,0.1721353530883789,True
1238,230,6.445944015710421,0.00018429700139677152,0.1720590591430664,True
1239,230,5.199760707672523,0.00018375899890088476,0.17205142974853516,True
1240,55,6.600068365153827,0.0001881239986687433,0.17205142974853516,True
1241,135,5.364752515429382,0.00018457300029695034,0.1720590591430664,True
1242,26,6.064740678986278,0.0001871839995146729,0.17208194732666016,True
1243,128,17.45782943825633,0.00019367699860595167,0.1720743179321289,True
1244,76,9.278030631835895,0.00018485100008547306,0.17205142974853516,True
1245,97,7.374472406467786,0.00018217999968328513,0.17205142974853516,True
1246,82,2.9860652667953445,0.0002006249997066334,0.17205142974853516,True
1247,82,2.6193068303433296,0.00018591999833006412,0.17205142974853516,True
1248,88,10.260148091827457,0.00018251099754706956,0.1720590591430664,True
1249,77,15.772118142619648,0.00019646299915621057,0.1720743179321289,True
1250,177,16.031879593590258,0.0007228979993669782,0.1720743179321289,True
1251,97,8.495448801164736,0.000270148000709014,0.1720590591430664,True
1252,273,7.897327347530458,0.00021289999858709052,0.1720590591430664,True
1253,128,9.631942192790454,0.00020560299890348688,0.17206668853759766,True
1254,26,14.050660158212713,0.00018878000264521688,0.17209720611572266,True
1255,138,41.2733143739341,0.0001900749994092621,0.17209720611572266,True
1256,159,9.53265312313902,0.00019512500148266554,0.17205142974853516,True
1257,183,7.861700078840394,0.0001854739966802299,0.1720590591430664,True
1258,230,3.9343547222309594,0.00018268300118506886,0.17205142974853516,True
1259,230,5.0209249467878445,0.0001939370013133157,0.17205142974853516,True
1260,88,7.9628249954795285,0.0001848459978646133,0.1720590591430664,True
1261,246,6.391410422041481,0.00018260000069858506,0.17206668853759766,True
1262,64,6.039766660921712,0.0001839460019255057,0.17205142974853516,True
1263,143,11.504537508169252,0.00018303199976799078,0.17205142974853516,True
1264,17,4.957060758065704,0.00018771500253933482,0.17214298248291016,True
1265,26,20.21933993226826,0.0001888940023491159,0.1720895767211914,True
1266,48,10.86315446713692,0.00019994399917777628,0.17206668853759766,True
1267,60,8.240735874087703,0.00019837699801428244,0.1720590591430664,True
1268,17,2.726459191628683,0.00019513700317475013,0.1721353530883789,True
1269,238,7.026816555215849,0.00019638899902929552,0.17205142974853516,True
1270,165,6.968006602564733,0.0001989839984162245,0.1720590591430664,True
1271,88,8.716106179108502,0.0001871089989435859,0.1720590591430664,True
1272,26,15.340943900292338,0.00020260599922039546,0.1720895767211914,True
1273,57,5.758663192542447,0.00018919499780167826,0.1720590591430664,True
1274,135,4.348919308484262,0.00018470500071998686,0.17205142974853516,True
1275,177,16.956226617432545,0.00018202299906988628,0.1720590591430664,True
1276,267,5.03562879943936,0.00019806300042546354,0.17205142974853516,True
1277,183,5.925754679539651,0.00018542600082582794,0.17205142974853516,True
1278,78,10.772548422227093,0.0002512559985916596,0.1720590591430664,True
1279,263,6.881972566800975,0.00021433900110423565,0.17205142974853516,True
1280,77,66.03409165624605,0.00020443199900910258,0.1721506118774414,True
1281,263,13.425097390666183,0.0001846570012276061,0.17206668853759766,True
1282,267,6.121403812374786,0.00018679999993764795,0.17205142974853516,True
1283,290,29.91806249341778,0.00018605299919727258,0.17206668853759766,True
1284,135,11.296729991635203,0.0001854090005508624,0.17206668853759766,True
1285,82,6.6337393511562,0.00018328700025449507,0.1720590591430664,True
1286,237,19.836501298927804,0.00018357600129093044,0.1720590591430664,True
1287,244,8.665517221550893,0.00018419199841446243,0.17206668853759766,True
1288,234,6.27047469820022,0.0001892709988169372,0.17205142974853516,True
1289,47,16.96243615872223,0.00021083400133647956,0.1720743179321289,True
1290,129,6.868065893511827,0.00018307199934497476,0.1720590591430664,True
1291,112,6.708911308508524,0.00018183599968324415,0.1720590591430664,True
1292,244,6.3516872271119835,0.00018410999837215059,0.17205142974853516,True
1293,136,52.97469841789464,0.00019334199896547943,0.17209720611572266,True
1294,57,3.9613069267628145,0.0002055120021395851,0.17205142974853516,True
1295,17,16.803433059931578,0.00020359799964353442,0.17214298248291016,True
1296,234,4.313829240854699,0.00019847700241371058,0.17205142974853516,True
1297,183,3.993582406432867,0.00018601799820316955,0.17205142974853516,True
1298,220,4.741156742170012,0.0001921580005728174,0.1720590591430664,True
1299,220,6.402085973223059,0.0001865680023911409,0.1720590591430664,True
1300,17,2.5375494648099286,0.00018815400107996538,0.1721353530883789,True
1301,77,12.03608319893488,0.0001871979984571226,0.1720743179321289,True
1302,17,9.324735538743488,0.00020002899691462517,0.17214298248291016,True
1303,214,4.369810481615515,0.0001842460005718749,0.17205142974853516,True
1304,183,7.597299117394894,0.000185503999091452,0.17205142974853516,True
1305,174,7.793959069019286,0.00018266899860464036,0.1720590591430664,True
1306,76,4.572835404465914,0.00020980399858672172,0.17205142974853516,True
1307,77,38.83449111893106,0.00018126199938706122,0.1720895767211914,True
1308,64,7.354828165687352,0.00018901099974755198,0.1720590591430664,True
1309,183,6.013565708543973,0.0001899939998111222,0.1720590591430664,True
1310,244,4.2046847903636575,0.00018488599744159728,0.17205142974853516,True
1311,234,21.550905734385044,0.00023110799884307198,0.17208194732666016,True
1312,244,3.8613155664758088,0.0001877350005088374,0.17205142974853516,True
1313,17,5.687535121871505,0.00019987099949503317,0.17214298248291016,True
1314,88,6.370536066192134,0.0001901300020108465,0.1720590591430664,True
1315,135,5.497575692014566,0.00019072000213782303,0.1720590591430664,True
1316,276,11.677717603522531,0.0001839159995142836,0.1720743179321289,True
1317,183,3.0682006057033298,0.00027975299963145517,0.17205142974853516,True
1318,270,7.611183387405413,0.00018335900313104503,0.1720590591430664,True
1319,112,10.762207655382301,0.0001837050003814511,0.17206668853759766,True
1320,112,7.005803677693598,0.0001826170009735506,0.1720590591430664,True
1321,109,1.8636547220453754,0.00018186600209446624,0.17205142974853516,True
1322,183,4.553448618254451,0.0001820030011003837,0.1720590591430664,True
1323,48,6.680933214902023,0.00018427300165058114,0.1720590591430664,True
1324,17,4.573281869606978,0.0001943200004461687,0.17214298248291016,True
1325,97,10.420280605629463,0.00019722900105989538,0.1720590591430664,True
1326,127,10.998774885499854,0.00018029200145974755,0.1720590591430664,True
1327,214,7.761629365948136,0.0001999869964492973,0.1720590591430664,True
1328,57,4.497117343812031,0.0001836340015870519,0.17205142974853516,True
1329,112,6.074745095969321,0.00018986600116477348,0.1720590591430664,True
1330,230,4.901727375751529,0.00029387899849098176,0.17205142974853516,True
1331,138,29.933845090446844,0.00018997900042450055,0.1720895767211914,True
1332,82,5.181627137152168,0.00018483800158719532,0.17205142974853516,True
1333,88,5.6249038140694525,0.00018359699970460497,0.1720590591430664,True
1334,214,5.329230110787198,0.00018015600289800204,0.1720590591430664,True
1335,183,9.035385397533055,0.0001860490010585636,0.17206668853759766,True
1336,244,4.997054693755006,0.0001838040006987285,0.17205142974853516,True
1337,183,7.56097543510915,0.00019698599862749688,0.1720590591430664,True
1338,267,9.508772075417639,0.0001843309983087238,0.1720590591430664,True
1339,159,6.877624421225757,0.00019976000112365,0.1720590591430664,True
1340,183,7.878678362439787,0.00018543099940870889,0.1720590591430664,True
1341,128,13.709948117998794,0.00019708100080606528,0.17205142974853516,True
1342,273,10.553132980780394,0.0002012959994317498,0.17206668853759766,True
1343,76,4.491661209141724,0.00018196300152339973,0.17205142974853516,True
1344,273,6.11731109734582,0.00018806899970513768,0.1720590591430664,True
1345,244,5.274567249054159,0.00018210700000054203,0.17205142974853516,True
1346,174,2.264049391732405,0.00019714600057341158,0.17205142974853516,True
1347,183,4.424868684397572,0.00018821199773810804,0.1720590591430664,True
1348,27,11.218165301205222,0.00019712300127139315,0.17205142974853516,True
1349,183,4.266717103068134,0.00019248900207458064,0.17205142974853516,True
1350,127,12.05041501236122,0.0001973710022866726,0.1720590591430664,True
1351,135,4.183399276249085,0.0006272659993555862,0.1720590591430664,True
1352,77,17.05332428088744,0.0001853300018410664,0.1720743179321289,True
1353,135,3.5641729993127718,0.00018558800002210774,0.17205142974853516,True
1354,112,8.411459391578084,0.00018583600103738718,0.17206668853759766,True
1355,128,8.02354312868257,0.00018599800023366697,0.17205142974853516,True
1356,263,6.888342531844028,0.00018588799866847694,0.17205142974853516,True
1357,183,5.64251794147807,0.00018788799934554845,0.17205142974853516,True
1358,109,4.115541401032271,0.00020602199947461486,0.17206668853759766,True
1359,17,13.281592796496223,0.00023056999998516403,0.1721506118774414,True
1360,135,9.57596556867656,0.00018229200213681906,0.17206668853759766,True
1361,112,7.474873364189623,0.00018509399887989275,0.17205142974853516,True
1362,138,21.669186964977662,0.00018875699970521964,0.1720743179321289,True
1363,234,6.973196828019213,0.00018439099949318916,0.1720590591430664,True
1364,230,11.11484546589959,0.00019312500080559403,0.1720590591430664,True
1365,17,4.97212888647374,0.00020814099843846634,0.17214298248291016,True
1366,238,7.503963805151037,0.00018619000184116885,0.17206668853759766,True
1367,76,4.472785839284226,0.00020021499949507415,0.17205142974853516,True
1368,97,9.08922250057601,0.00018439300038153306,0.17205142974853516,True
1369,129,11.877952961466619,0.0001831640001910273,0.17205142974853516,True
1370,273,50.34774615567572,0.00018787600129144266,0.1720895767211914,True
1371,273,8.43712689366053,0.0001854290021583438,0.17206668853759766,True
1372,273,6.774868111266156,0.0001958799985004589,0.1720590591430664,True
1373,112,5.823694190664675,0.00018480399739928544,0.1720590591430664,True
1374,48,10.2681604171168,0.00019489199985400774,0.17206668853759766,True
1375,230,4.551217338493201,0.00019667300148284994,0.17205142974853516,True
1376,230,4.280024211107005,0.00019203600095352158,0.17205142974853516,True
1377,237,2.990681331391719,0.00018412400095257908,0.17205142974853516,True
1378,230,5.177191250734568,0.00018220399942947552,0.17205142974853516,True
1379,177,21.1052523042044,0.00020049799786647782,0.17206668853759766,True
1380,183,7.4443525846086676,0.0001994300000660587,0.17206668853759766,True
1381,177,47.751437120713966,0.0001932380000653211,0.17214298248291016,True
1382,47,11.114810785124513,0.00018916399858426303,0.1720743179321289,True
1383,234,10.762798605659484,0.00018741600069915876,0.17205142974853516,True
1384,230,8.904223398345684,0.00019162199896527454,0.1720590591430664,True
1385,60,6.002739446145809,0.0001908369995362591,0.1720590591430664,True
1386,177,31.99922140109536,0.000200604998099152,0.1721048355102539,True
1387,97,5.49639919596067,0.00018273300156579353,0.1720590591430664,True
1388,77,29.222374438637654,0.00020019400108139962,0.17209720611572266,True
1389,129,3.694199398193163,0.0001949459983734414,0.1720590591430664,True
1390,135,4.91436550661508,0.00019903100110241212,0.17205142974853516,True
1391,109,7.695009308842827,0.0002005200003623031,0.1720590591430664,True
1392,138,160.55656385946153,0.0001928509991557803,0.1721506118774414,True
1393,230,8.032559623806755,0.0002765529970929492,0.1720590591430664,True
1394,183,11.476760697189487,0.0001899859998957254,0.17208194732666016,True
1395,220,7.564963660457579,0.0001850910011853557,0.1720590591430664,True
1396,17,17.793043279036457,0.00019134700050926767,0.17215824127197266,True
1397,246,3.3825711126371942,0.0001876679998531472,0.17205142974853516,True
1398,82,7.757509962598187,0.0001888389997475315,0.1720590591430664,True
1399,127,8.698901706390496,0.00020023900287924334,0.1720590591430664,True
1400,263,7.302245546109983,0.00019432900080573745,0.17205142974853516,True
1401,237,9.54148916413216,0.00019818099826807156,0.17205142974853516,True
1402,77,11.299977261610255,0.00020351399871287867,0.1720590591430664,True
1403,263,6.833984429747787,0.00020040600065840408,0.1720590591430664,True
1404,183,7.317318141149887,0.00019110799985355698,0.17206668853759766,True
1405,88,12.900116390873935,0.00018811500194715336,0.1720743179321289,True
1406,60,17.210212108312597,0.00020579299962264486,0.1720743179321289,True
1407,48,11.409366414285703,0.00020412599769770168,0.1720743179321289,True
1408,238,4.822553271202206,0.00018996300059370697,0.17205142974853516,True
1409,17,8.751838996485798,0.00019909600086975843,0.1721506118774414,True
1410,267,3.7177260135947976,0.00020212399977026507,0.17205142974853516,True
1411,220,7.824608866066483,0.00019042599888052791,0.1720590591430664,True
1412,77,18.439360066491535,0.00019910199989681132,0.17206668853759766,True
1413,230,4.282980182538517,0.000184544001967879,0.17205142974853516,True
1414,208,70.47471306671832,0.0002175070003431756,0.1722726821899414,True
1415,230,14.050485365223862,0.00018943000031867996,0.1720895767211914,True
1416,183,4.163357646246516,0.0002037839985860046,0.17205142974853516,True
1417,183,6.535363166369121,0.00018282100063515827,0.17205142974853516,True
1418,159,4.488321756998691,0.00018385200019110925,0.17205142974853516,True
1419,183,4.032845546315413,0.00018420500055071898,0.17205142974853516,True
1420,246,4.39087832355644,0.00019916200108127668,0.17205142974853516,True
1421,263,13.027396182891291,0.000190040998859331,0.17206668853759766,True
1422,82,4.869946603359637,0.0001803580016712658,0.17205142974853516,True
1423,183,4.8652225961326705,0.00017849700088845566,0.17205142974853516,True
1424,230,6.081998907264596,0.00018348599769524299,0.17205142974853516,True
1425,27,8.853160241928089,0.00017844000103650615,0.1720895767211914,True
1426,143,2.953605498120219,0.00018512400129111484,0.17205142974853516,True
1427,76,3.8931667118689552,0.0001786860011634417,0.17205142974853516,True
1428,214,7.174490644293166,0.00018512799942982383,0.1720590591430664,True
1429,244,7.603411258255676,0.00019311999858473428,0.1720590591430664,True
1430,135,2.803693870447102,0.00018471300063538365,0.17205142974853516,True
1431,159,7.216037978605577,0.00017967999883694574,0.1720590591430664,True
1432,27,6.153134993707134,0.0001830099972721655,0.17208194732666016,True
1433,267,3.967408723830874,0.00019445499856374227,0.17205142974853516,True
1434,183,2.3375083743965748,0.00018258999989484437,0.17205142974853516,True
1435,27,4.743553000820173,0.00018121000175597146,0.1720743179321289,True
1436,17,3.780562640462943,0.00018497299970476888,0.1721353530883789,True
1437,183,4.320180894151018,0.00018625000302563421,0.17205142974853516,True
1438,183,5.60769918947769,0.00018135200298274867,0.17205142974853516,True
1439,270,4.763925756800273,0.00018352800179854967,0.1720590591430664,True
1440,109,9.742897100095048,0.0001942609997058753,0.17205142974853516,True
1441,176,6.489027475584105,0.00017812000078265555,0.17205142974853516,True
1442,17,5.174306430693483,0.00018552199981058948,0.17214298248291016,True
1443,76,4.781771576920915,0.0001859439980762545,0.1720590591430664,True
1444,174,4.5945944449371385,0.00019061700004385784,0.17205142974853516,True
1445,60,12.701675251766313,0.00017699100135359913,0.1720590591430664,True
1446,88,3.6322688881183245,0.00018092599930241704,0.17205142974853516,True
1447,129,14.895272188329486,0.0001781149985617958,0.17206668853759766,True
1448,176,3.478901609863971,0.00018714999896474183,0.17205142974853516,True
1449,17,7.394763800073812,0.00018824400103767402,0.17214298248291016,True
1450,78,20.577430456569996,0.00018458799968357198,0.17206668853759766,True
1451,177,26.420752416439964,0.00017890000162879005,0.1720895767211914,True
1452,76,5.156961617785255,0.00019539099957910366,0.17205142974853516,True
1453,57,3.437057095576358,0.0001789560010365676,0.17205142974853516,True
1454,183,5.810149536779578,0.00017631400260142982,0.1720590591430664,True
1455,76,9.140939396145024,0.00017409400243195705,0.1720590591430664,True
1456,128,6.007949429336367,0.00017986300008487888,0.1720590591430664,True
1457,47,21.973075288331305,0.00018397600069874898,0.1720743179321289,True
1458,82,8.119492364243209,0.00018062799790641293,0.1720590591430664,True
1459,17,12.62057267178021,0.00018144099885830656,0.17214298248291016,True
1460,135,9.464383543401885,0.00018932000239146873,0.1720590591430664,True
1461,135,8.06639903684356,0.0001911999970616307,0.1720590591430664,True
1462,88,15.669974486635653,0.00017839500287664123,0.17206668853759766,True
1463,220,2.247525955891938,0.00019506999888108112,0.17205142974853516,True
1464,183,6.4803236331941925,0.00018444499801262282,0.1720590591430664,True
1465,17,4.978420749468704,0.00018393099890090525,0.17214298248291016,True
1466,230,3.8555269059290906,0.00017597300029592589,0.17205142974853516,True
1467,234,13.94233800180172,0.00020194300304865465,0.17206668853759766,True
1468,143,3.817188355538847,0.0002004630005103536,0.17205142974853516,True
1469,135,4.769813881802555,0.0002654820018506143,0.17205142974853516,True
1470,135,4.475257352513661,0.0002043960012088064,0.17205142974853516,True
1471,60,10.626476581699505,0.0001928710007632617,0.17208194732666016,True
1472,27,5.223507787829133,0.00020792999930563383,0.1720743179321289,True
1473,27,7.124777197819187,0.00020597700131474994,0.17208194732666016,True
1474,238,4.169707642898389,0.00018422300126985647,0.17205142974853516,True
1475,206,6.1158916969531285,0.00018660699788597412,0.17205142974853516,True
1476,129,16.00985994268523,0.00019440599862718955,0.17208194732666016,True
1477,76,8.953583097663918,0.0002107799991790671,0.17206668853759766,True
1478,76,4.933162903973778,0.00020722699991893023,0.17205142974853516,True
1479,230,4.364286480534194,0.0001875240013760049,0.17205142974853516,True
1480,76,5.400464436093032,0.00018071600061375648,0.17205142974853516,True
1481,47,12.443775232720512,0.00018551199900684878,0.17206668853759766,True
1482,127,8.070546344541976,0.00019471199993859045,0.1720590591430664,True
1483,230,5.075695540539209,0.00018523799735703506,0.17205142974853516,True
1484,17,7.492540581107055,0.00018334899868932553,0.1721506118774414,True
1485,230,5.478370697573391,0.0001854820002336055,0.1720590591430664,True
1486,138,26.06021616876455,0.00019167000209563412,0.17208194732666016,True
1487,27,15.00304744833457,0.0005140430002938956,0.17208194732666016,True
1488,244,4.922615692223198,0.00019914899894502014,0.17206668853759766,True
1489,26,15.425470089453764,0.0001899859998957254,0.17211246490478516,True
1490,267,10.306258363168512,0.0001991479985008482,0.17205142974853516,True
1491,159,6.795227837611636,0.0003176850004820153,0.17205142974853516,True
1492,88,12.804705341608148,0.00017905200002132915,0.1720590591430664,True
1493,78,32.913752961244064,0.00020118300017202273,0.17208194732666016,True
1494,176,20.515081586266692,0.00018602599811856635,0.17206668853759766,True
1495,183,3.140842407867443,0.0002645310014486313,0.17205142974853516,True
1496,127,39.112570213336355,0.00017920000027515925,0.1720590591430664,True
1497,220,4.438309784108541,0.00018024800010607578,0.17205142974853516,True
1498,220,8.717552668080529,0.00021894000019528903,0.17205142974853516,True
1499,135,6.14658332793982,0.00020605199824785814,0.17205142974853516,True
1500,234,0.9987165521164861,0.00017641399972490035,0.17205142974853516,True
1501,48,15.75651735131203,0.00017800800196710043,0.17206668853759766,True
1502,127,7.250662203476538,0.00017959699835046194,0.17205142974853516,True
1503,230,5.6541320083976405,0.000179212998773437,0.17205142974853516,True
1504,263,6.9509810988329015,0.0001934850006364286,0.17205142974853516,True
1505,97,16.035728267483734,0.00018153800192521885,0.1720895767211914,True
1506,176,6.003253675684821,0.00018226899919682182,0.17205142974853516,True
1507,263,3.1897639159554227,0.00017508300152258016,0.17205142974853516,True
1508,64,5.094171136432604,0.00021277699852362275,0.1720590591430664,True
1509,234,4.591948346345612,0.00017678500080364756,0.17205142974853516,True
1510,76,6.723331891939359,0.00018804199862643145,0.1720590591430664,True
1511,237,6.34945518097018,0.00018098899818141945,0.1720590591430664,True
1512,159,7.199231276414112,0.00018637699758983217,0.1720590591430664,True
1513,273,7.600873712035796,0.0001810510002542287,0.1720590591430664,True
1514,138,35.98433025183824,0.00018493199968361296,0.17212772369384766,True
1515,82,5.553519851099849,0.0001790020032785833,0.17205142974853516,True
1516,27,3.0789520245980384,0.00018083499890053645,0.1720743179321289,True
1517,127,11.037706743874734,0.00018991400065715425,0.17206668853759766,True
1518,244,3.2817181406219547,0.00019817700012936257,0.17205142974853516,True
1519,112,28.750345028839693,0.00019422200057306327,0.17208194732666016,True
1520,135,6.096541166794527,0.00023577000320074148,0.1720590591430664,True
1521,26,13.130113822180796,0.00019190399689250626,0.17209720611572266,True
1522,135,7.11853170769455,0.0001816039984987583,0.17206668853759766,True
1523,64,4.24170948253754,0.00017872399985208176,0.17205142974853516,True
1524,82,5.819924320875907,0.00017808300253818743,0.17205142974853516,True
1525,60,9.890492590285056,0.00017987399769481272,0.17206668853759766,True
1526,27,8.890377306452235,0.00017996599854086526,0.17208194732666016,True
1527,244,3.318431619373754,0.00019475000226520933,0.17205142974853516,True
1528,82,6.205731193665095,0.00019679500110214576,0.1720590591430664,True
1529,76,18.537364868344287,0.0001788909976312425,0.17208194732666016,True
1530,176,9.784087044883039,0.0001767169997037854,0.17206668853759766,True
1531,149,5.172931872482487,0.0001796870019461494,0.17205142974853516,True
1532,136,12.4475891816659,0.00018870200074161403,0.1720743179321289,True
1533,183,7.013795842083937,0.00017871599993668497,0.17205142974853516,True
1534,17,8.355679080575873,0.00018238499978906475,0.17214298248291016,True
1535,76,3.728408552872248,0.0001804530002118554,0.17205142974853516,True
1536,280,7.1873656096397545,0.00017674899936537258,0.1720590591430664,True
1537,273,8.07522863703048,0.0001781130013114307,0.1720590591430664,True
1538,88,10.388034678330937,0.00018107800133293495,0.17206668853759766,True
1539,138,91.86877727659528,0.0001937870001711417,0.17212772369384766,True
1540,230,2.514783325415235,0.00017837699851952493,0.17205142974853516,True
1541,143,4.701873888343452,0.00018846800230676308,0.17205142974853516,True
1542,220,3.329851645559895,0.00017572499928064644,0.1720590591430664,True
1543,26,22.367264558882674,0.0001907760015456006,0.1721048355102539,True
1544,129,5.8403024266984955,0.00017713300258037634,0.1720590591430664,True
1545,183,5.6843445153741,0.00019347199850017205,0.17205142974853516,True
1546,220,2.452663973691202,0.00017894199845613912,0.17205142974853516,True
1547,128,4.147606767592553,0.00017676700008451007,0.17205142974853516,True
1548,97,11.348608234630683,0.00017799700071918778,0.1720590591430664,True
1549,77,77.64989614336658,0.00019002000044565648,0.17218875885009766,True
1550,97,13.149512822361533,0.00019091699869022705,0.17206668853759766,True
1551,174,2.127503095956132,0.00018167199959862046,0.17205142974853516,True
1552,55,11.266525512679625,0.00018838899995898828,0.1720590591430664,True
1553,273,9.604317832747517,0.00017879300139611587,0.1720590591430664,True
1554,234,5.586520229341355,0.00017483999909018166,0.1720590591430664,True
1555,88,6.5943225648820185,0.00019092900038231164,0.1720590591430664,True
1556,77,34.89962843596203,0.00020055099957971834,0.17209720611572266,True
1557,26,9.022727293594743,0.00018791999900713563,0.1720743179321289,True
1558,244,4.2457950404202975,0.00017661200035945512,0.17205142974853516,True
1559,135,3.950876685813843,0.0002294510013598483,0.17205142974853516,True
1560,136,41.97810778863398,0.00019787000201176852,0.1720895767211914,True
1561,183,5.940141886163207,0.00017746299999998882,0.17206668853759766,True
1562,237,5.614474945435866,0.00018073100000037812,0.17206668853759766,True
1563,183,2.3999694910108897,0.00017732799824443646,0.17205142974853516,True
1564,76,8.29705078966445,0.0001793689989426639,0.1720590591430664,True
1565,165,7.140287490508442,0.00019328399866935797,0.17205142974853516,True
1566,220,2.5099963719998835,0.000197584002307849,0.17205142974853516,True
1567,183,3.5658717451677964,0.00017647699860390276,0.17205142974853516,True
1568,177,8.752528677179606,0.00018567499864730053,0.1720590591430664,True
1569,263,6.0817862891599175,0.00017730399849824607,0.1720590591430664,True
1570,273,7.235941605779946,0.00017589900016901083,0.1720590591430664,True
1571,17,2.151812835156737,0.00018248199921799824,0.1721353530883789,True
1572,128,2.1137945280509713,0.00017515700164949521,0.17205142974853516,True
1573,263,7.730563809760535,0.00017652499809628353,0.1720590591430664,True
1574,230,4.6112079739892895,0.00018514899784349836,0.17205142974853516,True
1575,176,7.602616213451418,0.00019821500245598145,0.17206668853759766,True
1576,230,7.299230308330167,0.00018695800099521875,0.17205142974853516,True
1577,77,60.744468990639504,0.00018586400256026536,0.17215824127197266,True
1578,208,9.272181916188796,0.00017909199959831312,0.17206668853759766,True
1579,238,19.335868734785173,0.00027675200180965476,0.1720590591430664,True
1580,26,16.39565444690916,0.00023291199977393262,0.17208194732666016,True
1581,183,5.828844740255498,0.00018595499932416715,0.17206668853759766,True
1582,109,4.03544591695566,0.00017791299978853203,0.1720590591430664,True
1583,220,3.738632439203841,0.0001819139979488682,0.17205142974853516,True
1584,60,6.830450125459818,0.0001939590001711622,0.17206668853759766,True
1585,273,12.574196565594404,0.00017703800040180795,0.1720743179321289,True
1586,76,7.760261181007292,0.00018018899936578237,0.1720590591430664,True
1587,237,8.643301550609698,0.00046178999764379114,0.1720590591430664,True
1588,138,72.42616318405864,0.000299012001050869,0.17217350006103516,True
1589,77,43.9582167903128,0.00018288199862581678,0.1720895767211914,True
1590,214,9.329538381077874,0.00018558399824541993,0.17206668853759766,True
1591,176,24.874144439715575,0.00018147399896406569,0.17208194732666016,True
1592,76,3.760733534668317,0.00017798699991544709,0.17205142974853516,True
1593,17,13.15548452689717,0.0001894550005090423,0.17214298248291016,True
1594,135,3.524484961144855,0.0001867460014182143,0.17205142974853516,True
1595,220,3.3525132993541544,0.00019665700165205635,0.17205142974853516,True
1596,26,18.40488307011472,0.00018283400277141482,0.1720895767211914,True
1597,26,11.422062153810815,0.00032155000008060597,0.17208194732666016,True
1598,64,4.826145419291653,0.00019074699957855046,0.17205142974853516,True
1599,214,7.299894638176729,0.00017713499983074144,0.17206668853759766,True
1600,60,6.8121407806117436,0.00018608100072015077,0.17206668853759766,True
1601,17,5.371674845641072,0.00018101900059264153,0.17214298248291016,True
1602,17,5.388636254065708,0.00018232899674330838,0.1721353530883789,True
1603,165,7.894290545826408,0.00035745900095207617,0.17205142974853516,True
1604,273,9.19315595014877,0.00018359300156589597,0.1720590591430664,True
1605,17,34.94785428914397,0.0001952639977389481,0.1721658706665039,True
1606,208,7.808743905556285,0.00018312199972569942,0.1720590591430664,True
1607,176,5.997290287943631,0.0001777910001692362,0.1720590591430664,True
1608,183,10.96200722907935,0.00018857400209526531,0.17206668853759766,True
1609,88,10.408903095272018,0.00017701300021144561,0.1720590591430664,True
1610,183,6.886788894838772,0.00017791400023270398,0.1720590591430664,True
1611,17,8.81632130901664,0.00018295900008524768,0.17214298248291016,True
1612,109,5.462707566047637,0.00017527399904793128,0.17205142974853516,True
1613,246,5.671195740426684,0.00017738599854055792,0.1720590591430664,True
1614,244,8.346623478665263,0.0001775210002961103,0.17206668853759766,True
1615,129,5.310674798594248,0.00017799399938667193,0.1720590591430664,True
1616,135,8.606603883451486,0.00018900599752669223,0.1720590591430664,True
1617,220,6.356798711439942,0.00017735899746185169,0.1720590591430664,True
1618,17,3.8003137593628145,0.00018683099915506318,0.1721353530883789,True
1619,26,17.608745413207487,0.0001867869978013914,0.1720895767211914,True
1620,82,9.394333027907756,0.00017576800019014627,0.1720590591430664,True
1621,267,5.7582333306715,0.00017625200052862056,0.17205142974853516,True
1622,234,4.986522151949256,0.0001772089999576565,0.1720590591430664,True
1623,208,8.113108652576413,0.00017675200069788843,0.17206668853759766,True
1624,220,5.235528436534627,0.00017923999985214323,0.17206668853759766,True
1625,263,7.580553026934595,0.00018855599773814902,0.1720590591430664,True
1626,112,8.836281653444269,0.00018737600112217478,0.1720590591430664,True
1627,230,5.385024255616034,0.00017753399879438803,0.17205142974853516,True
1628,64,13.068438344388218,0.0001780439997673966,0.1720743179321289,True
1629,135,5.959438559660938,0.00018444900342728943,0.1720590591430664,True
1630,183,3.2600120649387554,0.00017795100211515091,0.17205142974853516,True
